Index of pulse,Tpi,Tpp,Tsys,Tdia,Tsp,Tdp,deltaT,Tsw10,Tsw25,Tsw33,Tsw50,Tsw66,Tsw75,Tsw90,Tdw10,Tdw25,Tdw33,Tdw50,Tdw66,Tdw75,Tdw90,Tpw10,Tpw25,Tpw33,Tpw50,Tpw66,Tpw75,Tpw90,Asp,Adn,Adp,Aoff,AUCpi,AUCsys,AUCdia
1,0.6,0.608,0.336,0.22399999999999998,0.152,0.376,0.224,0.096,0.08,0.072,0.055999999999999994,0.048,0.039999999999999994,0.023999999999999994,0.376,0.208,0.152,0.11200000000000002,0.08000000000000002,0.07200000000000001,0.04000000000000001,0.472,0.288,0.22399999999999998,0.168,0.128,0.112,0.064,0.9531066410532595,-0.323789440504751,-0.6388685647045722,-0.7786187762421748,-1.2009914817664,-0.1649269517308354,-1.0360645300355646
2,0.592,0.5840000000000001,0.328,0.16799999999999998,0.16000000000000003,0.424,0.26399999999999996,0.12,0.09599999999999997,0.08799999999999997,0.07200000000000006,0.05600000000000005,0.04800000000000004,0.03200000000000003,0.3679999999999999,0.264,0.11199999999999999,0.08799999999999997,0.06399999999999995,0.05599999999999994,0.03200000000000003,0.4879999999999999,0.36,0.19999999999999996,0.16000000000000003,0.12,0.10399999999999998,0.06400000000000006,1.4267407005569068,0.3350848126833029,0.0977247295663638,0.09220407968529432,-1.6348587497695388,1.018459954354237,-2.653318704123776
3,0.5920000000000001,0.5999999999999999,0.36,0.20000000000000007,0.15200000000000014,0.392,0.23999999999999988,0.1120000000000001,0.09600000000000009,0.08800000000000008,0.07200000000000006,0.05600000000000005,0.04800000000000004,0.03200000000000003,0.3599999999999999,0.15999999999999992,0.1359999999999999,0.09599999999999986,0.07199999999999984,0.06399999999999983,0.039999999999999813,0.472,0.256,0.22399999999999998,0.16799999999999993,0.1279999999999999,0.11199999999999988,0.07199999999999984,1.5673094251149524,0.33781547465305695,0.049016839094371656,-0.011614057804631872,0.6214868829685464,1.617476777411367,-0.9959898944428206
4,0.5999999999999999,0.6000000000000001,0.336,0.16799999999999987,0.15999999999999992,0.432,0.2720000000000001,0.11199999999999988,0.09599999999999986,0.08799999999999986,0.07199999999999984,0.05600000000000005,0.04800000000000004,0.03200000000000003,0.3599999999999999,0.1280000000000001,0.1120000000000001,0.08800000000000008,0.06400000000000006,0.05600000000000005,0.03200000000000003,0.47199999999999975,0.22399999999999998,0.19999999999999996,0.15999999999999992,0.1200000000000001,0.10400000000000009,0.06400000000000006,1.4939875039431068,0.2898875534164216,0.08274910223497117,0.07760668584185304,-2.724978935298572,0.4605453690734666,-3.1855243043720387
5,0.5920000000000001,0.5920000000000001,0.344,0.20800000000000007,0.16000000000000014,0.384,0.22399999999999987,0.1120000000000001,0.09600000000000009,0.08800000000000008,0.07200000000000006,0.05600000000000005,0.04800000000000004,0.03200000000000003,0.35199999999999987,0.14400000000000013,0.1200000000000001,0.09600000000000009,0.07200000000000006,0.05600000000000005,0.03200000000000003,0.46399999999999997,0.2400000000000002,0.20800000000000018,0.16800000000000015,0.1280000000000001,0.10400000000000009,0.06400000000000006,1.4240950701605448,0.19601826432105857,-0.03625901691155109,-0.11191371676466,2.452752541604998,2.2473107255915297,0.20544181601346834
6,0.6000000000000001,0.5920000000000001,0.344,0.19200000000000012,0.16000000000000014,0.408,0.24799999999999983,0.1200000000000001,0.09600000000000009,0.08800000000000008,0.07200000000000006,0.05600000000000005,0.04800000000000004,0.03200000000000003,0.3759999999999999,0.21599999999999975,0.12799999999999967,0.09600000000000009,0.07200000000000006,0.06400000000000006,0.03200000000000003,0.496,0.31199999999999983,0.21599999999999975,0.16800000000000015,0.1280000000000001,0.1120000000000001,0.06400000000000006,1.5793505532539447,0.40011437862011956,0.08813937724603771,0.03440258180472955,-1.3280894051960763,0.8728901261236136,-2.20097953131969
7,0.5840000000000001,0.6000000000000001,0.344,0.1760000000000001,0.15200000000000014,0.408,0.25599999999999984,0.1120000000000001,0.09600000000000009,0.08800000000000008,0.07200000000000006,0.05600000000000005,0.04800000000000004,0.03200000000000003,0.35199999999999987,0.13599999999999968,0.11999999999999966,0.09599999999999964,0.07199999999999962,0.055999999999999606,0.031999999999999584,0.46399999999999997,0.23199999999999976,0.20799999999999974,0.1679999999999997,0.12799999999999967,0.10399999999999965,0.06399999999999961,1.4823700757328475,0.24457940537477102,0.04152020060355599,0.025800285864223116,-1.9624676183383323,0.619195251934146,-2.581662870272478
8,0.6159999999999997,0.5999999999999996,0.352,0.17599999999999966,0.16800000000000015,0.44,0.27199999999999985,0.1200000000000001,0.09600000000000009,0.08800000000000008,0.07200000000000006,0.05600000000000005,0.04800000000000004,0.03200000000000003,0.37599999999999945,0.13600000000000012,0.1200000000000001,0.09600000000000009,0.07200000000000006,0.05600000000000005,0.03200000000000003,0.49599999999999955,0.2320000000000002,0.20800000000000018,0.16800000000000015,0.1280000000000001,0.10400000000000009,0.06400000000000006,1.503901536235579,0.3162434720396426,0.0736156509478676,0.059940755139153534,-6.151700721320499,-1.1833304077180256,-4.968370313602474
9,0.5840000000000005,0.5919999999999996,0.344,0.16800000000000054,0.15200000000000014,0.416,0.26399999999999985,0.1120000000000001,0.08800000000000008,0.08000000000000007,0.06400000000000006,0.05600000000000005,0.040000000000000036,0.02400000000000002,0.3600000000000003,0.14400000000000013,0.1200000000000001,0.09600000000000009,0.07200000000000006,0.06400000000000006,0.040000000000000036,0.4720000000000004,0.2320000000000002,0.20000000000000018,0.16000000000000014,0.1280000000000001,0.10400000000000009,0.06400000000000006,1.2604845470117856,0.21920637168299265,-0.006610694215558932,-0.01156259887115274,0.921980047167769,1.713213682505498,-0.791233635337729
10,0.5919999999999996,0.5920000000000005,0.344,0.18399999999999966,0.15999999999999925,0.408,0.24800000000000072,0.11199999999999921,0.0959999999999992,0.08799999999999919,0.07199999999999918,0.05599999999999916,0.047999999999999154,0.023999999999999133,0.3680000000000003,0.15200000000000014,0.1280000000000001,0.09600000000000009,0.07200000000000006,0.06400000000000006,0.040000000000000036,0.47999999999999954,0.24799999999999933,0.2159999999999993,0.16799999999999926,0.12799999999999923,0.11199999999999921,0.06399999999999917,1.2995198514580322,0.2997064286721258,0.0458499195329623,0.01197407693060415,-1.0017018814881113,0.8827278875297114,-1.8844297690178227
11,0.5999999999999996,0.6079999999999997,0.352,0.17599999999999966,0.16000000000000014,0.424,0.26399999999999985,0.1120000000000001,0.09600000000000009,0.08800000000000008,0.07200000000000006,0.05600000000000005,0.04800000000000004,0.02400000000000002,0.3680000000000003,0.14400000000000013,0.1280000000000001,0.09600000000000009,0.07200000000000006,0.06400000000000006,0.040000000000000036,0.4800000000000004,0.2400000000000002,0.2160000000000002,0.16800000000000015,0.1280000000000001,0.1120000000000001,0.06400000000000006,1.3272318009580117,0.22525544798900476,-0.022287315048526324,-0.03568787954356423,2.692838718287114,2.467126230632526,0.22571248765458796
12,0.6080000000000005,0.6000000000000005,0.36,0.18400000000000055,0.16800000000000015,0.424,0.25599999999999984,0.1200000000000001,0.09600000000000009,0.08800000000000008,0.07200000000000006,0.06400000000000006,0.04800000000000004,0.03200000000000003,0.3600000000000003,0.15200000000000014,0.1280000000000001,0.09600000000000009,0.07200000000000006,0.05600000000000005,0.03200000000000003,0.4800000000000004,0.24800000000000022,0.2160000000000002,0.16800000000000015,0.13600000000000012,0.10400000000000009,0.06400000000000006,1.361336135140732,0.2606281432949961,0.0057271046255024105,-0.014650380407451591,1.4578423974107615,1.9375434352795289,-0.4797010378687674
13,0.5919999999999996,0.5919999999999996,0.344,0.17599999999999966,0.16000000000000014,0.416,0.25599999999999984,0.1120000000000001,0.09600000000000009,0.08800000000000008,0.07200000000000006,0.05600000000000005,0.04800000000000004,0.03200000000000003,0.35999999999999943,0.14400000000000013,0.1200000000000001,0.09600000000000009,0.07200000000000006,0.05600000000000005,0.03200000000000003,0.47199999999999953,0.2400000000000002,0.20800000000000018,0.16800000000000015,0.1280000000000001,0.10400000000000009,0.06400000000000006,1.5215439443678265,0.2722759350710607,-0.019411936975864186,-0.03541914511676236,2.9274826057514365,2.558895770864834,0.3685868348866026
14,0.5919999999999996,0.5919999999999996,0.344,0.17599999999999966,0.16000000000000014,0.416,0.25599999999999984,0.1200000000000001,0.09600000000000009,0.08800000000000008,0.07200000000000006,0.05600000000000005,0.04800000000000004,0.03200000000000003,0.3600000000000003,0.15200000000000014,0.12799999999999923,0.0959999999999992,0.07200000000000006,0.05600000000000005,0.03200000000000003,0.4800000000000004,0.24800000000000022,0.2159999999999993,0.16799999999999926,0.1280000000000001,0.10400000000000009,0.06400000000000006,1.527770473550642,0.2833603192256526,-0.03201976346333446,-0.050175288561281395,3.6825993161530826,2.8884794535434084,0.7941198626096742
15,0.5920000000000005,0.5999999999999996,0.36,0.2000000000000005,0.16000000000000014,0.392,0.23199999999999987,0.1120000000000001,0.09600000000000009,0.08799999999999919,0.07199999999999918,0.05599999999999916,0.04800000000000004,0.03200000000000003,0.3520000000000003,0.15200000000000102,0.1280000000000001,0.09600000000000009,0.07200000000000095,0.06400000000000006,0.040000000000000924,0.4640000000000004,0.2480000000000011,0.2159999999999993,0.16799999999999926,0.1280000000000001,0.1120000000000001,0.07200000000000095,1.6551338585709094,0.3569579690140313,0.05879152234980267,0.01572474380894473,-2.2828762934711357,0.3212987252386556,-2.604175018709791
16,0.6159999999999997,0.6080000000000005,0.36,0.17599999999999966,0.16799999999999926,0.44,0.27200000000000074,0.11999999999999922,0.09600000000000009,0.08799999999999919,0.07199999999999918,0.05599999999999916,0.04800000000000004,0.023999999999999133,0.3680000000000003,0.14400000000000013,0.1280000000000001,0.09600000000000009,0.07200000000000095,0.06400000000000006,0.040000000000000924,0.48799999999999955,0.2400000000000002,0.2159999999999993,0.16799999999999926,0.1280000000000001,0.1120000000000001,0.06400000000000006,1.6162857134892825,0.3420920530628135,0.05112290895260463,0.039081906541064915,-11.91645336495034,-3.932964665454466,-7.983488699495875
17,0.5999999999999996,0.5999999999999996,0.336,0.17599999999999966,0.16000000000000014,0.424,0.26399999999999985,0.1120000000000001,0.09600000000000009,0.08799999999999919,0.07199999999999918,0.05599999999999916,0.04800000000000004,0.023999999999999133,0.3680000000000003,0.2640000000000011,0.120000000000001,0.09600000000000009,0.07200000000000095,0.05600000000000094,0.03200000000000003,0.4800000000000004,0.3600000000000012,0.20800000000000018,0.16799999999999926,0.1280000000000001,0.10400000000000098,0.05599999999999916,1.5386469905177882,0.29491376864368596,0.009189037276375323,-0.010063677110034752,1.4594959286177935,1.8900959711625964,-0.4306000425448029
18,0.5920000000000005,0.5920000000000005,0.344,0.16800000000000054,0.16000000000000014,0.424,0.26399999999999985,0.1120000000000001,0.09600000000000009,0.08799999999999919,0.07199999999999918,0.05599999999999916,0.04800000000000004,0.03200000000000003,0.3600000000000012,0.14400000000000013,0.120000000000001,0.09600000000000009,0.07200000000000095,0.05600000000000094,0.03200000000000003,0.4720000000000013,0.2400000000000002,0.20800000000000018,0.16799999999999926,0.1280000000000001,0.10400000000000098,0.06400000000000006,1.5569803861370357,0.2753086661324766,-0.02835884482751605,-0.034200108027668374,3.453340351529469,2.8128734274585048,0.6404669240709642
19,0.5999999999999996,0.5999999999999996,0.352,0.19199999999999967,0.16000000000000014,0.408,0.24799999999999983,0.11999999999999922,0.09600000000000009,0.08799999999999919,0.07199999999999918,0.05599999999999916,0.04800000000000004,0.03200000000000003,0.3680000000000003,0.16000000000000014,0.1280000000000001,0.09600000000000009,0.07200000000000095,0.06400000000000006,0.040000000000000924,0.48799999999999955,0.2560000000000002,0.2159999999999993,0.16799999999999926,0.1280000000000001,0.1120000000000001,0.07200000000000095,1.6512175955890687,0.3633149469491446,0.04335487415475825,-0.010416135050853814,1.666668754017973,2.059874298885452,-0.39320554486747916
20,0.6080000000000005,0.6080000000000005,0.36,0.16800000000000054,0.16000000000000014,0.44,0.27999999999999986,0.1120000000000001,0.09600000000000009,0.08799999999999919,0.07199999999999918,0.05599999999999916,0.04800000000000004,0.023999999999999133,0.3520000000000003,0.136000000000001,0.120000000000001,0.09600000000000009,0.07200000000000095,0.06400000000000006,0.040000000000000924,0.4640000000000004,0.2320000000000011,0.20800000000000018,0.16799999999999926,0.1280000000000001,0.1120000000000001,0.06400000000000006,1.6015835513278511,0.3211862093097531,0.10231890576296043,0.09865214405280959,19.061904367152817,9.816538567469072,9.245365799683745
21,0.6159999999999997,0.6080000000000005,0.344,0.19199999999999967,0.16000000000000014,0.424,0.26399999999999985,0.1120000000000001,0.08800000000000097,0.08000000000000007,0.06400000000000006,0.05600000000000094,0.04800000000000004,0.02400000000000091,0.39199999999999946,0.2240000000000002,0.1280000000000001,0.09600000000000009,0.07199999999999918,0.06400000000000006,0.03999999999999915,0.5039999999999996,0.31200000000000117,0.20800000000000018,0.16000000000000014,0.1280000000000001,0.1120000000000001,0.06400000000000006,1.5268789375946104,0.28038459159807877,-0.021118962891781334,-0.07893803804069227,5.69458747971576,3.6333124006389017,2.061275079076858
22,0.5760000000000005,0.5919999999999987,0.328,0.1760000000000005,0.15200000000000102,0.4,0.247999999999999,0.1120000000000001,0.09600000000000009,0.08800000000000097,0.07200000000000095,0.05600000000000094,0.04800000000000004,0.03200000000000003,0.35199999999999854,0.27200000000000024,0.11999999999999922,0.08799999999999919,0.06400000000000006,0.05599999999999916,0.03200000000000003,0.46399999999999864,0.3680000000000003,0.20800000000000018,0.16000000000000014,0.120000000000001,0.1039999999999992,0.06400000000000006,1.5122582273284215,0.3331038106495394,0.016215588551314664,-0.0038289683989356504,0.7817049173022435,1.6911723822490148,-0.9094674649467713
23,0.5999999999999996,0.6000000000000014,0.36,0.19999999999999962,0.16799999999999926,0.4,0.23200000000000076,0.11999999999999922,0.09600000000000009,0.08799999999999919,0.07199999999999918,0.06400000000000006,0.05599999999999916,0.03200000000000003,0.3520000000000003,0.15200000000000102,0.1280000000000001,0.09600000000000009,0.07200000000000095,0.05600000000000094,0.03200000000000003,0.47199999999999953,0.2480000000000011,0.2159999999999993,0.16799999999999926,0.136000000000001,0.1120000000000001,0.06400000000000006,1.6799602578933284,0.3443320142091416,0.02086513458177819,-0.04122345891428081,4.365946049535228,3.305246434131784,1.0606996154034434
24,0.6159999999999997,0.6079999999999988,0.36,0.18399999999999966,0.16800000000000104,0.432,0.26399999999999896,0.120000000000001,0.09600000000000009,0.08800000000000097,0.07200000000000095,0.05600000000000094,0.04800000000000004,0.03200000000000003,0.35999999999999943,0.15199999999999925,0.12799999999999834,0.09599999999999831,0.07199999999999918,0.06400000000000006,0.03999999999999915,0.4800000000000004,0.24799999999999933,0.2159999999999993,0.16799999999999926,0.1280000000000001,0.1120000000000001,0.07199999999999918,1.6993847798614639,0.3611468956792876,0.064888830971634,0.04576790632128336,-495.97517746371807,-218.00149554758138,-277.9736819161367
25,0.6160000000000014,0.5999999999999996,0.336,0.18400000000000144,0.16000000000000014,0.432,0.27199999999999985,0.11999999999999922,0.09600000000000009,0.08799999999999919,0.07199999999999918,0.05599999999999916,0.04800000000000004,0.03200000000000003,0.38400000000000034,0.27200000000000024,0.120000000000001,0.09600000000000009,0.07200000000000095,0.05600000000000094,0.03200000000000003,0.5039999999999996,0.3680000000000003,0.20800000000000018,0.16799999999999926,0.1280000000000001,0.10400000000000098,0.06400000000000006,1.6142231215565888,0.3348732984995443,0.06073706104250043,0.02824984538431441,-16.8327687531774,-5.508128703063889,-11.324640050113512
26,0.5839999999999996,0.6000000000000014,0.328,0.17599999999999966,0.14399999999999835,0.408,0.2640000000000016,0.1120000000000001,0.08799999999999919,0.08000000000000007,0.06400000000000006,0.05599999999999916,0.03999999999999915,0.023999999999999133,0.3680000000000003,0.14400000000000013,0.1280000000000001,0.09600000000000009,0.07200000000000095,0.06400000000000006,0.040000000000000924,0.4800000000000004,0.23199999999999932,0.20800000000000018,0.16000000000000014,0.1280000000000001,0.1039999999999992,0.06400000000000006,1.5311125637922218,0.26282981017320706,-0.02284298254450079,-0.04168718996823095,4.940662649598729,3.4302427182508004,1.5104199313479287
27,0.6079999999999988,0.5999999999999996,0.336,0.18399999999999878,0.16000000000000014,0.424,0.26399999999999985,0.120000000000001,0.09600000000000009,0.08800000000000097,0.07200000000000095,0.05600000000000094,0.04800000000000004,0.03200000000000003,0.37599999999999945,0.20800000000000018,0.1280000000000001,0.09600000000000009,0.07199999999999918,0.05599999999999916,0.03200000000000003,0.49600000000000044,0.30400000000000027,0.21600000000000108,0.16800000000000104,0.1280000000000001,0.1039999999999992,0.06400000000000006,1.6226715590954366,0.37579780507926996,0.022485056799539604,-0.011581129789952738,2.328221867812787,2.2743129394074146,0.053908928405372425
28,0.5920000000000023,0.6080000000000005,0.336,0.19200000000000228,0.15200000000000102,0.4,0.247999999999999,0.11200000000000188,0.09600000000000009,0.08800000000000097,0.07199999999999918,0.05600000000000094,0.04800000000000182,0.03200000000000003,0.35999999999999943,0.14399999999999835,0.120000000000001,0.09600000000000009,0.07199999999999918,0.05600000000000094,0.03200000000000003,0.4720000000000013,0.23999999999999844,0.20800000000000196,0.16799999999999926,0.1280000000000001,0.10400000000000276,0.06400000000000006,1.6306455652932534,0.3304124115947224,0.06887112975201648,0.02634046628690967,-23.26404415550169,-8.217062273343874,-15.046981882157816
29,0.6159999999999997,0.5999999999999979,0.344,0.18399999999999966,0.16799999999999926,0.432,0.26400000000000073,0.120000000000001,0.09600000000000009,0.08800000000000097,0.07199999999999918,0.05600000000000094,0.04800000000000182,0.03200000000000003,0.36799999999999855,0.1280000000000001,0.11199999999999832,0.08799999999999741,0.06400000000000006,0.05600000000000094,0.03200000000000003,0.48799999999999955,0.2240000000000002,0.1999999999999993,0.1599999999999966,0.120000000000001,0.10400000000000276,0.06400000000000006,1.608331761129082,0.3275073611721505,0.10684072874446704,0.08079158943433129,17.054053298845922,8.476088225918431,8.57796507292749
30,0.5999999999999979,0.6000000000000014,0.336,0.1839999999999979,0.15199999999999747,0.416,0.2640000000000025,0.11199999999999832,0.08799999999999741,0.0799999999999983,0.06400000000000006,0.055999999999997385,0.047999999999998266,0.023999999999997357,0.3680000000000021,0.13600000000000279,0.120000000000001,0.09600000000000009,0.07200000000000273,0.05600000000000094,0.03200000000000003,0.4800000000000004,0.2240000000000002,0.1999999999999993,0.16000000000000014,0.1280000000000001,0.1039999999999992,0.055999999999997385,1.4239644835231413,0.20709806788680785,0.0013786312116083055,-0.02593279200852322,4.267847941200079,3.111172628670861,1.1566753125292184
31,0.5920000000000023,0.5919999999999987,0.344,0.17600000000000232,0.15200000000000102,0.416,0.26399999999999896,0.11200000000000188,0.09600000000000009,0.08800000000000097,0.07199999999999918,0.05600000000000094,0.04800000000000182,0.03200000000000003,0.36799999999999855,0.14399999999999835,0.120000000000001,0.09600000000000009,0.07199999999999918,0.05600000000000094,0.03200000000000003,0.4800000000000004,0.23999999999999844,0.20800000000000196,0.16799999999999926,0.1280000000000001,0.10400000000000276,0.06400000000000006,1.4853937071559593,0.25934667077674467,-0.004942681126495707,-0.022790859585620937,4.09000864859709,3.1576679900034734,0.9323406585936165
32,0.5999999999999979,0.6080000000000005,0.344,0.1839999999999979,0.15199999999999747,0.416,0.2640000000000025,0.11199999999999832,0.08799999999999741,0.0799999999999983,0.06400000000000006,0.055999999999997385,0.047999999999998266,0.023999999999997357,0.35999999999999943,0.1440000000000019,0.1280000000000001,0.09600000000000009,0.07200000000000273,0.06400000000000006,0.0400000000000027,0.47199999999999775,0.23199999999999932,0.2079999999999984,0.16000000000000014,0.1280000000000001,0.11199999999999832,0.06400000000000006,1.567955868155788,0.25101636044713277,0.006283004069074116,-0.016503543901252637,3.2241326048614107,2.768075780909851,0.45605682395155966
33,0.6080000000000005,0.6159999999999997,0.344,0.19200000000000056,0.16000000000000014,0.416,0.25599999999999984,0.120000000000001,0.09600000000000009,0.08800000000000097,0.07199999999999918,0.05600000000000094,0.047999999999998266,0.03200000000000003,0.35999999999999943,0.13599999999999923,0.120000000000001,0.09600000000000009,0.07199999999999918,0.05600000000000094,0.03200000000000003,0.4800000000000004,0.23199999999999932,0.20800000000000196,0.16799999999999926,0.1280000000000001,0.1039999999999992,0.06400000000000006,1.6681219033117602,0.295647036659611,0.03764973561545748,-0.0014363215224195702,0.6436260084050612,1.6446722704648253,-1.0010462620597642
34,0.6080000000000005,0.5920000000000023,0.344,0.19200000000000056,0.16799999999999926,0.416,0.24800000000000072,0.11999999999999744,0.09600000000000009,0.08799999999999741,0.07199999999999918,0.055999999999997385,0.047999999999998266,0.03200000000000003,0.3520000000000003,0.13599999999999923,0.11200000000000188,0.08800000000000097,0.06400000000000006,0.05600000000000094,0.03200000000000003,0.47199999999999775,0.23199999999999932,0.1999999999999993,0.16000000000000014,0.11999999999999744,0.1039999999999992,0.06400000000000006,1.6120204886314446,0.29523356878622475,0.041435810039555154,0.004249491448971021,-1.2938359009336249,0.7614913247322174,-2.055327225665842
35,0.5919999999999987,0.5999999999999979,0.344,0.16799999999999876,0.15200000000000102,0.424,0.27199999999999896,0.11200000000000188,0.08800000000000097,0.08000000000000185,0.07200000000000273,0.05600000000000094,0.04800000000000182,0.02400000000000091,0.36799999999999855,0.14399999999999835,0.1280000000000001,0.09600000000000009,0.0799999999999983,0.06400000000000006,0.03999999999999915,0.4800000000000004,0.23199999999999932,0.20800000000000196,0.1680000000000028,0.13599999999999923,0.11200000000000188,0.06400000000000006,1.5589878674427955,0.2575584525176472,0.002716295228922694,-0.005945780570014492,1.707801398595477,2.1309051755452266,-0.42310377694974965
36,0.6000000000000014,0.6080000000000005,0.352,0.17600000000000143,0.16000000000000014,0.424,0.26399999999999985,0.11199999999999832,0.09600000000000009,0.08800000000000097,0.07199999999999918,0.05600000000000094,0.047999999999998266,0.03200000000000003,0.3680000000000021,0.1440000000000019,0.1280000000000001,0.09600000000000009,0.07199999999999918,0.06400000000000006,0.03999999999999915,0.4800000000000004,0.240000000000002,0.21600000000000108,0.16799999999999926,0.1280000000000001,0.11199999999999832,0.07199999999999918,1.6817694786279171,0.27330509285594745,-0.03542728340142487,-0.05722823063445748,6.209832754898874,4.106592009929633,2.1032407449692405
37,0.6159999999999997,0.6080000000000005,0.352,0.18399999999999966,0.16799999999999926,0.432,0.26400000000000073,0.120000000000001,0.1039999999999992,0.09600000000000009,0.0799999999999983,0.06400000000000006,0.05600000000000094,0.03200000000000003,0.3760000000000012,0.1440000000000019,0.120000000000001,0.09600000000000009,0.07199999999999918,0.05600000000000094,0.03200000000000003,0.4960000000000022,0.2480000000000011,0.21600000000000108,0.17599999999999838,0.13599999999999923,0.11200000000000188,0.06400000000000006,1.6720906585570647,0.3537106170183215,0.049284219376262484,0.02011936118601787,-19.878940201268808,-7.283270227293125,-12.595669973975683
38,0.6000000000000014,0.6000000000000014,0.336,0.18400000000000144,0.16000000000000014,0.416,0.25599999999999984,0.120000000000001,0.1039999999999992,0.09600000000000009,0.08000000000000185,0.06400000000000006,0.05600000000000094,0.03200000000000003,0.3760000000000012,0.2560000000000002,0.120000000000001,0.08800000000000097,0.06400000000000006,0.05600000000000094,0.03200000000000003,0.4960000000000022,0.35999999999999943,0.21600000000000108,0.1680000000000028,0.1280000000000001,0.11200000000000188,0.06400000000000006,1.6522763074509448,0.35179930005034493,0.06408915171061969,0.021015157672561013,-27.04025932609304,-9.951539416102277,-17.088719909990765
39,0.5919999999999987,0.5919999999999987,0.344,0.17599999999999877,0.16000000000000014,0.416,0.25599999999999984,0.120000000000001,0.09600000000000009,0.08800000000000097,0.07200000000000273,0.05600000000000094,0.04800000000000182,0.03200000000000003,0.35199999999999676,0.14399999999999835,0.11999999999999744,0.09599999999999653,0.07199999999999918,0.055999999999997385,0.03200000000000003,0.47199999999999775,0.23999999999999844,0.2079999999999984,0.16799999999999926,0.1280000000000001,0.1039999999999992,0.06400000000000006,1.571488684669716,0.29663860270152176,-0.004525098119911308,-0.019251231085721243,4.081090097615548,3.1460480187059927,0.9350420789095555
40,0.5919999999999987,0.5999999999999979,0.352,0.17599999999999877,0.16000000000000014,0.416,0.25599999999999984,0.120000000000001,0.09600000000000009,0.08800000000000097,0.07199999999999918,0.05600000000000094,0.04800000000000182,0.03200000000000003,0.35999999999999943,0.14399999999999835,0.1280000000000001,0.09600000000000009,0.07199999999999918,0.06400000000000006,0.03999999999999915,0.4800000000000004,0.23999999999999844,0.21600000000000108,0.16799999999999926,0.1280000000000001,0.11200000000000188,0.07199999999999918,1.7083594312088022,0.3099556972400296,0.0033946284490633527,-0.016405443517229168,3.7412449683242257,3.0581934111157847,0.683051557208441
41,0.5839999999999996,0.5840000000000032,0.336,0.16799999999999965,0.16799999999999926,0.416,0.24800000000000072,0.11999999999999744,0.09600000000000009,0.08799999999999741,0.07199999999999918,0.055999999999997385,0.047999999999998266,0.03200000000000003,0.3360000000000021,0.120000000000001,0.11200000000000188,0.08800000000000097,0.07200000000000273,0.05600000000000094,0.03200000000000003,0.4559999999999995,0.21600000000000108,0.1999999999999993,0.16000000000000014,0.1280000000000001,0.1039999999999992,0.06400000000000006,1.7281205581468595,0.23744650135466572,0.05013319607315203,0.04389922793400547,24.596684330556545,11.994523008772237,12.602161321784308
42,0.6080000000000005,0.5999999999999979,0.336,0.20000000000000057,0.1680000000000028,0.408,0.23999999999999716,0.120000000000001,0.09600000000000009,0.08800000000000097,0.07200000000000273,0.05600000000000094,0.04800000000000182,0.03200000000000003,0.3839999999999968,0.3039999999999985,0.1280000000000001,0.09600000000000009,0.07199999999999918,0.055999999999997385,0.03200000000000003,0.5039999999999978,0.3999999999999986,0.21600000000000108,0.1680000000000028,0.1280000000000001,0.1039999999999992,0.06400000000000006,1.663449602352545,0.3765820969365255,0.037147207898060475,-0.06879652757963428,7.006100275449214,4.198098979818287,2.808001295630927
43,0.5920000000000023,0.5920000000000023,0.344,0.2000000000000023,0.16000000000000014,0.392,0.23199999999999987,0.120000000000001,0.09600000000000009,0.08800000000000097,0.07199999999999918,0.06400000000000006,0.05600000000000094,0.03200000000000003,0.3520000000000003,0.13599999999999923,0.120000000000001,0.08800000000000097,0.06400000000000006,0.05600000000000094,0.03200000000000003,0.4720000000000013,0.23199999999999932,0.20800000000000196,0.16000000000000014,0.1280000000000001,0.11200000000000188,0.06400000000000006,1.636835688783572,0.3579669996729412,0.10485925415447572,0.04597882924140695,19.665764715489154,9.967074748898035,9.698689966591118
44,0.5999999999999979,0.5999999999999979,0.344,0.1919999999999979,0.16000000000000014,0.408,0.24799999999999983,0.120000000000001,0.09600000000000009,0.08800000000000097,0.07200000000000273,0.06400000000000006,0.04800000000000182,0.03200000000000003,0.36799999999999855,0.15199999999999747,0.12799999999999656,0.09599999999999653,0.07199999999999918,0.06400000000000006,0.03200000000000003,0.48799999999999955,0.24799999999999756,0.21599999999999753,0.16799999999999926,0.13599999999999923,0.11200000000000188,0.06400000000000006,1.6367135838437115,0.3847942896219482,0.07581562003609621,0.02719339428976042,81.42723017248115,36.24945393799593,45.177776234485215
45,0.6000000000000014,0.6080000000000005,0.352,0.17600000000000143,0.16000000000000014,0.424,0.26399999999999985,0.120000000000001,0.1039999999999992,0.08800000000000097,0.07199999999999918,0.06400000000000006,0.05600000000000094,0.03200000000000003,0.35999999999999943,0.1440000000000019,0.120000000000001,0.09600000000000009,0.07199999999999918,0.05600000000000094,0.03200000000000003,0.4800000000000004,0.2480000000000011,0.20800000000000196,0.16799999999999926,0.13599999999999923,0.11200000000000188,0.06400000000000006,1.5906377203180504,0.27146298936153024,0.0018749365509875826,-0.013384858753404005,3.5674479891158386,2.967931017508219,0.5995169716076196
46,0.6080000000000005,0.6000000000000014,0.336,0.17600000000000054,0.16799999999999926,0.432,0.26400000000000073,0.120000000000001,0.1039999999999992,0.09600000000000009,0.07199999999999918,0.06400000000000006,0.04800000000000182,0.03200000000000003,0.16000000000000014,0.26399999999999935,0.1039999999999992,0.0799999999999983,0.06400000000000006,0.047999999999998266,0.03200000000000003,0.28000000000000114,0.36799999999999855,0.1999999999999993,0.15199999999999747,0.1280000000000001,0.09600000000000009,0.06400000000000006,1.5510284715857865,0.2878471753583472,0.1700504170042792,0.15232912925675668,11.15215341957128,5.951789546471236,5.200363873100043
47,0.5919999999999987,0.5999999999999979,0.336,0.17599999999999877,0.16000000000000014,0.416,0.25599999999999984,0.120000000000001,0.09600000000000009,0.08800000000000097,0.07200000000000273,0.05600000000000094,0.04800000000000182,0.03200000000000003,0.35999999999999943,0.13599999999999923,0.11999999999999744,0.08799999999999741,0.07199999999999918,0.055999999999997385,0.03200000000000003,0.4800000000000004,0.23199999999999932,0.2079999999999984,0.16000000000000014,0.1280000000000001,0.1039999999999992,0.06400000000000006,1.3283373678790955,0.168107063501409,-0.10464359284207803,-0.12350312414568432,8.340063010627732,4.902507268499861,3.437555742127871
48,0.6080000000000005,0.6000000000000014,0.352,0.19200000000000056,0.16799999999999926,0.416,0.24800000000000072,0.120000000000001,0.1039999999999992,0.08800000000000097,0.07199999999999918,0.06400000000000006,0.047999999999998266,0.03200000000000003,0.3680000000000021,0.1440000000000019,0.1280000000000001,0.09600000000000009,0.07199999999999918,0.05600000000000094,0.03200000000000003,0.4880000000000031,0.2480000000000011,0.21600000000000108,0.16799999999999926,0.13599999999999923,0.1039999999999992,0.06400000000000006,1.4707528272258144,0.34308265977761343,0.08334070274207028,0.035611410606576244,21.41679252662365,10.766987376216186,10.649805150407463
49,0.5999999999999979,0.6080000000000005,0.344,0.17599999999999788,0.16000000000000014,0.424,0.26399999999999985,0.120000000000001,0.09600000000000009,0.08800000000000097,0.07199999999999918,0.06400000000000006,0.05600000000000094,0.03200000000000003,0.36799999999999855,0.13599999999999923,0.11999999999999744,0.08799999999999741,0.07199999999999918,0.05600000000000094,0.03200000000000003,0.48799999999999955,0.23199999999999932,0.2079999999999984,0.1599999999999966,0.13599999999999923,0.11200000000000188,0.06400000000000006,1.4111844480369782,0.2560727258458475,0.00758977883448364,-0.010370601980244198,3.450927291681528,2.8508807877365365,0.6000465039449914
50,0.6160000000000032,0.607999999999997,0.352,0.19200000000000322,0.1680000000000028,0.424,0.2559999999999972,0.120000000000001,0.09600000000000009,0.08800000000000097,0.07200000000000273,0.05600000000000094,0.04800000000000182,0.03200000000000003,0.36799999999999855,0.13599999999999923,0.11999999999999744,0.08799999999999741,0.07199999999999918,0.055999999999997385,0.03200000000000003,0.48799999999999955,0.23199999999999932,0.2079999999999984,0.16000000000000014,0.1280000000000001,0.1039999999999992,0.06400000000000006,1.5993686652925851,0.2931249438600573,0.025539732415829297,-0.01596090082815993,4.209395603330838,3.1233026362987277,1.0860929670321107
51,0.5919999999999987,0.5920000000000023,0.336,0.18399999999999878,0.1599999999999966,0.408,0.24800000000000338,0.11999999999999744,0.09600000000000009,0.08799999999999741,0.07199999999999918,0.055999999999997385,0.047999999999998266,0.03200000000000003,0.3520000000000003,0.1280000000000001,0.11200000000000188,0.08800000000000097,0.06400000000000006,0.05600000000000094,0.03200000000000003,0.47199999999999775,0.2240000000000002,0.1999999999999993,0.16000000000000014,0.11999999999999744,0.1039999999999992,0.06400000000000006,1.529093204385494,0.24298243115142254,0.00403483115812675,-0.021589426838026005,5.036634486770594,3.492240820197172,1.5443936665734217
52,0.6080000000000005,0.6080000000000005,0.352,0.19200000000000056,0.16000000000000014,0.416,0.25599999999999984,0.11200000000000188,0.09600000000000009,0.08800000000000097,0.07199999999999918,0.05600000000000094,0.04800000000000182,0.02400000000000091,0.37599999999999767,0.15200000000000102,0.1280000000000001,0.09600000000000009,0.07199999999999918,0.06400000000000006,0.03999999999999915,0.48799999999999955,0.2480000000000011,0.21600000000000108,0.16799999999999926,0.1280000000000001,0.11200000000000188,0.06400000000000006,1.6409479379516054,0.32784387450148406,0.049369954461125465,-0.00018830825378857163,0.4205142805002766,1.4967990991310736,-1.076284818630797
53,0.6080000000000005,0.6080000000000005,0.352,0.20000000000000057,0.16000000000000014,0.408,0.24799999999999983,0.11200000000000188,0.09600000000000009,0.08800000000000097,0.07200000000000273,0.05600000000000094,0.04800000000000182,0.03200000000000003,0.34399999999999764,0.1280000000000001,0.11199999999999832,0.08799999999999741,0.07199999999999918,0.055999999999997385,0.03200000000000003,0.4559999999999995,0.2240000000000002,0.1999999999999993,0.16000000000000014,0.1280000000000001,0.1039999999999992,0.06400000000000006,1.6560381523907273,0.24889537790929234,0.05303859327990029,0.011710704231740698,-11.940755987671382,-3.8567882220555894,-8.083967765615792
54,0.6159999999999997,0.6080000000000005,0.352,0.18399999999999966,0.16000000000000014,0.432,0.27199999999999985,0.11200000000000188,0.09600000000000009,0.08800000000000097,0.07200000000000273,0.05600000000000094,0.04800000000000182,0.02400000000000091,0.36799999999999855,0.1439999999999948,0.120000000000001,0.09600000000000009,0.07199999999999918,0.05600000000000094,0.03200000000000003,0.4800000000000004,0.23999999999999488,0.20800000000000196,0.1680000000000028,0.1280000000000001,0.10400000000000276,0.05600000000000094,1.5532643992441388,0.3280990805671285,0.10365587865362275,0.08135561256448953,12.570855549019296,6.779599510034966,5.791256038984329
55,0.6000000000000014,0.607999999999997,0.336,0.19200000000000145,0.15200000000000102,0.408,0.25599999999999895,0.11200000000000188,0.08800000000000097,0.0800000000000054,0.06400000000000006,0.05600000000000449,0.03999999999999915,0.02400000000000091,0.367999999999995,0.14399999999999835,0.1280000000000001,0.09599999999999653,0.07199999999999562,0.06400000000000006,0.03999999999999915,0.4799999999999969,0.23199999999999932,0.2080000000000055,0.1599999999999966,0.1280000000000001,0.1039999999999992,0.06400000000000006,1.4204336662967831,0.228393281910784,-0.02046805615474495,-0.06617981799526251,7.689431927814083,4.577729799377719,3.111702128436364
56,0.5999999999999943,0.6000000000000014,0.336,0.18399999999999433,0.1599999999999966,0.416,0.2560000000000034,0.11200000000000188,0.09599999999999653,0.08800000000000097,0.07200000000000273,0.055999999999997385,0.04800000000000182,0.031999999999996476,0.3680000000000021,0.2560000000000002,0.11999999999999744,0.09600000000000364,0.07200000000000273,0.055999999999997385,0.03200000000000358,0.480000000000004,0.35199999999999676,0.2079999999999984,0.16800000000000637,0.1280000000000001,0.1039999999999992,0.06400000000000006,1.4656667120361253,0.2751987922607635,-0.006037057392705325,-0.043420225886225516,6.952255985551753,4.266411860311675,2.685844125240078
57,0.6159999999999997,0.6159999999999997,0.352,0.20799999999999969,0.1600000000000037,0.408,0.24799999999999628,0.11200000000000188,0.09600000000000364,0.08800000000000097,0.07200000000000273,0.055999999999997385,0.04800000000000182,0.02400000000000091,0.38400000000000034,0.240000000000002,0.13600000000000279,0.1039999999999992,0.0799999999999983,0.06400000000000006,0.03999999999999915,0.4960000000000022,0.3360000000000056,0.22400000000000375,0.17600000000000193,0.13599999999999568,0.11200000000000188,0.06400000000000006,1.7241270869857506,0.3466542557634549,0.009025610538645146,-0.0934146115812362,7.9650306934041994,4.7858530386715765,3.179177654732623
58,0.6080000000000041,0.6159999999999997,0.344,0.1760000000000041,0.1600000000000037,0.432,0.2719999999999963,0.11999999999999744,0.09600000000000364,0.08800000000000097,0.07200000000000273,0.055999999999997385,0.04800000000000182,0.03200000000000358,0.3680000000000021,0.13600000000000279,0.11999999999999744,0.08800000000000097,0.07200000000000273,0.055999999999997385,0.031999999999996476,0.48799999999999955,0.23200000000000642,0.2079999999999984,0.1600000000000037,0.1280000000000001,0.1039999999999992,0.06400000000000006,1.704043781802882,0.39347662619217055,0.15851400701161944,0.14219906231024337,11.114738619050152,6.080951642834318,5.0337869762158345
59,0.6240000000000023,0.6159999999999997,0.344,0.20000000000000234,0.16799999999999926,0.424,0.2560000000000007,0.11999999999999744,0.09599999999999653,0.08800000000000097,0.07200000000000273,0.055999999999997385,0.04800000000000182,0.031999999999996476,0.38400000000000034,0.13600000000000279,0.11999999999999744,0.08800000000000097,0.07200000000000273,0.055999999999997385,0.031999999999996476,0.5039999999999978,0.23199999999999932,0.2079999999999984,0.1600000000000037,0.1280000000000001,0.1039999999999992,0.06399999999999295,1.61092472396802,0.30659574475494844,0.05384609656281869,-0.014214191012827504,4.330649469931686,3.0873604893599835,1.2432889805717022
60,0.5999999999999943,0.6000000000000014,0.344,0.19199999999999434,0.1599999999999966,0.408,0.24800000000000338,0.11999999999999744,0.09599999999999653,0.08800000000000097,0.07200000000000273,0.055999999999997385,0.04800000000000182,0.031999999999996476,0.35999999999999943,0.13600000000000279,0.11999999999999744,0.08800000000000097,0.06400000000000006,0.055999999999997385,0.03200000000000358,0.4799999999999969,0.23199999999999932,0.2079999999999984,0.1600000000000037,0.11999999999999744,0.1039999999999992,0.06400000000000006,1.4668366941711073,0.29008071793593637,0.05550604748828031,0.018271284830842727,67.75116001650032,30.81366701570713,36.9374930007932
61,0.6080000000000041,0.607999999999997,0.344,0.20000000000000412,0.1600000000000037,0.408,0.24799999999999628,0.12000000000000455,0.09600000000000364,0.08800000000000097,0.07200000000000273,0.05600000000000449,0.04800000000000182,0.03200000000000358,0.3680000000000021,0.14399999999999835,0.1280000000000001,0.09599999999999653,0.07199999999999562,0.055999999999997385,0.031999999999996476,0.48800000000000665,0.240000000000002,0.21600000000000108,0.16799999999999926,0.1280000000000001,0.1039999999999992,0.06400000000000006,1.5118686523244453,0.3030313565217384,0.05132963191079665,-0.006751155789834207,2.988709572925766,2.6343230273878793,0.35438654553788673
62,0.6159999999999997,0.6159999999999997,0.36,0.21599999999999964,0.1599999999999966,0.4,0.24000000000000343,0.11999999999999744,0.09599999999999653,0.08800000000000097,0.07199999999999562,0.055999999999997385,0.047999999999994714,0.031999999999996476,0.35999999999999943,0.15200000000000102,0.1280000000000001,0.09600000000000364,0.07200000000000273,0.05600000000000449,0.03200000000000358,0.4799999999999969,0.24799999999999756,0.21600000000000108,0.16799999999999926,0.1280000000000001,0.1039999999999992,0.06400000000000006,1.556290151204911,0.2792017541717173,0.036039382843326806,-0.038034711714622804,6.705748945493677,4.337067734614689,2.3686812108789876
63,0.6240000000000023,0.6240000000000023,0.344,0.19200000000000234,0.1599999999999966,0.432,0.2720000000000034,0.11999999999999744,0.09599999999999653,0.08800000000000097,0.07199999999999562,0.055999999999997385,0.047999999999994714,0.031999999999996476,0.38400000000000034,0.27200000000000557,0.1280000000000001,0.09600000000000364,0.07200000000000273,0.06400000000000006,0.03200000000000358,0.5039999999999978,0.3680000000000021,0.21600000000000108,0.16799999999999926,0.1280000000000001,0.11199999999999477,0.06400000000000006,1.5668781500992028,0.3365573782482539,0.07246723456060039,0.02945772100131272,22.09167157154279,10.447602002942801,11.644069568599988
64,0.6159999999999997,0.6159999999999997,0.336,0.19999999999999968,0.1599999999999966,0.416,0.2560000000000034,0.11999999999999744,0.09599999999999653,0.08800000000000097,0.07200000000000273,0.055999999999997385,0.04800000000000182,0.03200000000000358,0.38400000000000034,0.23199999999999932,0.11999999999999744,0.09599999999999653,0.07200000000000273,0.055999999999997385,0.031999999999996476,0.5039999999999978,0.32799999999999585,0.2079999999999984,0.16799999999999926,0.1280000000000001,0.1039999999999992,0.06400000000000006,1.5855827383960683,0.3107106171498172,0.05276944714916165,-0.026488073001246337,6.050623717239885,3.788755329216105,2.26186838802378
65,0.5999999999999943,0.6000000000000014,0.344,0.18399999999999433,0.1599999999999966,0.416,0.2560000000000034,0.11200000000000188,0.09599999999999653,0.08800000000000097,0.07200000000000273,0.055999999999997385,0.04800000000000182,0.031999999999996476,0.3680000000000021,0.13600000000000279,0.11999999999999744,0.08800000000000097,0.07200000000000273,0.055999999999997385,0.03200000000000358,0.480000000000004,0.23199999999999932,0.2079999999999984,0.1600000000000037,0.1280000000000001,0.1039999999999992,0.06400000000000006,1.553000258128151,0.2837136042033218,0.020455776276104953,-0.012163836064778888,4.229337967135831,3.1653112921816753,1.0640266749541558
66,0.6159999999999997,0.6159999999999997,0.352,0.20799999999999969,0.1600000000000037,0.408,0.24799999999999628,0.12000000000000455,0.09600000000000364,0.08800000000000097,0.07200000000000273,0.05600000000000449,0.04800000000000182,0.03200000000000358,0.37599999999999767,0.1599999999999966,0.1280000000000001,0.09599999999999653,0.07199999999999562,0.06400000000000006,0.03999999999999915,0.4960000000000022,0.2560000000000002,0.21600000000000108,0.16799999999999926,0.1280000000000001,0.11200000000000188,0.07200000000000273,1.6691902717208384,0.3676694439016375,0.0906326575362561,0.0028693586784247493,-1.5318298977263394,0.7006199318452756,-2.232449829571615
67,0.6240000000000023,0.6240000000000023,0.344,0.20000000000000234,0.1600000000000037,0.424,0.2639999999999963,0.11999999999999744,0.09600000000000364,0.08800000000000097,0.07200000000000273,0.06400000000000006,0.04800000000000182,0.03200000000000358,0.37599999999999767,0.13599999999999568,0.11999999999999744,0.08800000000000097,0.06400000000000006,0.055999999999997385,0.031999999999996476,0.4959999999999951,0.23199999999999932,0.2079999999999984,0.1600000000000037,0.1280000000000001,0.1039999999999992,0.06400000000000006,1.5814739117026106,0.3095697026757327,0.07453622397839943,0.03207207248924726,19.207243677972674,9.239729634641856,9.967514043330818
68,0.6240000000000023,0.6239999999999952,0.344,0.19200000000000234,0.1600000000000037,0.432,0.2719999999999963,0.11200000000000188,0.09600000000000364,0.08800000000000097,0.07200000000000273,0.05600000000000449,0.04800000000000182,0.02400000000000091,0.37599999999999767,0.13599999999999568,0.11999999999999744,0.09599999999999653,0.07199999999999562,0.06400000000000006,0.031999999999996476,0.48799999999999955,0.23199999999999932,0.2079999999999984,0.16799999999999926,0.1280000000000001,0.11200000000000188,0.055999999999997385,1.6089745389214891,0.312685558090363,0.08806909435007526,0.049509574179927185,14.376719339265078,7.286607566856198,7.09011177240888
69,0.607999999999997,0.6080000000000041,0.336,0.191999999999997,0.1599999999999966,0.416,0.2560000000000034,0.11999999999999744,0.09599999999999653,0.08800000000000097,0.07199999999999562,0.055999999999997385,0.04800000000000182,0.031999999999996476,0.3680000000000021,0.13600000000000279,0.12000000000000455,0.08800000000000097,0.06400000000000006,0.05600000000000449,0.03200000000000358,0.48799999999999955,0.23199999999999932,0.2080000000000055,0.1599999999999966,0.11999999999999744,0.10400000000000631,0.06400000000000006,1.4629474129749656,0.229513982061348,0.009315215635488927,-0.040865237407570976,7.221611970570587,4.332363792641201,2.889248177929386
70,0.6080000000000041,0.607999999999997,0.344,0.1920000000000041,0.1600000000000037,0.416,0.2559999999999963,0.11200000000000188,0.09600000000000364,0.08800000000000097,0.07200000000000273,0.05600000000000449,0.04800000000000182,0.03200000000000358,0.37599999999999767,0.14399999999999835,0.11999999999999744,0.09599999999999653,0.07199999999999562,0.055999999999997385,0.031999999999996476,0.48799999999999955,0.240000000000002,0.2079999999999984,0.16799999999999926,0.1280000000000001,0.1039999999999992,0.06400000000000006,1.4929531616153027,0.2902452158312839,0.04151519164685313,-0.007527963993364861,3.457669886436987,2.822646941242797,0.6350229451941902
71,0.6319999999999979,0.6319999999999979,0.352,0.23199999999999787,0.1599999999999966,0.4,0.24000000000000343,0.11999999999999744,0.09599999999999653,0.08800000000000097,0.07200000000000273,0.055999999999997385,0.04800000000000182,0.031999999999996476,0.392000000000003,0.2560000000000002,0.13600000000000279,0.1039999999999992,0.0799999999999983,0.06400000000000006,0.03999999999999915,0.5120000000000005,0.35199999999999676,0.22400000000000375,0.17600000000000193,0.13599999999999568,0.11200000000000188,0.07199999999999562,1.6040735058822708,0.334860517886644,0.07337820604047729,-0.08147418835117981,8.186063521368173,4.776205418461043,3.4098581029071298
72,0.607999999999997,0.6159999999999997,0.352,0.183999999999997,0.1599999999999966,0.424,0.2640000000000034,0.11199999999999477,0.09599999999999653,0.08799999999999386,0.07199999999999562,0.055999999999997385,0.047999999999994714,0.031999999999996476,0.3680000000000021,0.14400000000000546,0.12000000000000455,0.09600000000000364,0.07200000000000273,0.06400000000000006,0.03999999999999915,0.4799999999999969,0.240000000000002,0.2079999999999984,0.16799999999999926,0.1280000000000001,0.11199999999999477,0.07199999999999562,1.6265554669362041,0.4088075771873688,0.14752716045354086,0.12595487638258884,10.969361326930592,6.178214332531175,4.791146994399417
73,0.6400000000000006,0.6240000000000023,0.352,0.20800000000000057,0.16799999999999926,0.432,0.26400000000000073,0.11999999999999744,0.09599999999999653,0.08799999999999386,0.07199999999999562,0.055999999999997385,0.047999999999994714,0.031999999999996476,0.3760000000000048,0.13600000000000279,0.12000000000000455,0.08800000000000097,0.07200000000000273,0.05600000000000449,0.03200000000000358,0.4960000000000022,0.23199999999999932,0.2079999999999984,0.1599999999999966,0.1280000000000001,0.1039999999999992,0.06400000000000006,1.485490701056965,0.27626831074961594,0.0901579301770864,0.032640021678164155,17.415312702723217,8.581882562342248,8.833430140380969
74,0.6080000000000041,0.6080000000000041,0.336,0.1920000000000041,0.15200000000000102,0.416,0.26399999999999896,0.11200000000000188,0.08800000000000097,0.0799999999999983,0.06400000000000006,0.055999999999997385,0.04800000000000182,0.02400000000000091,0.37599999999999767,0.14399999999999835,0.11999999999999744,0.09600000000000364,0.07200000000000273,0.06400000000000006,0.03999999999999915,0.48799999999999955,0.23199999999999932,0.19999999999999574,0.1600000000000037,0.1280000000000001,0.11200000000000188,0.06400000000000006,1.4287529053022694,0.1876554705954111,-0.05815959688300687,-0.10420133766959061,8.647490756627088,4.927061511410115,3.7204292452169723
75,0.607999999999997,0.6159999999999997,0.352,0.191999999999997,0.15200000000000102,0.416,0.26399999999999896,0.11200000000000188,0.09600000000000364,0.08800000000000097,0.07200000000000273,0.05600000000000449,0.04800000000000182,0.02400000000000091,0.38399999999999324,0.15199999999999392,0.13599999999999568,0.1039999999999992,0.0799999999999983,0.06400000000000006,0.03999999999999915,0.4959999999999951,0.24799999999999756,0.22399999999999665,0.17600000000000193,0.13600000000000279,0.11200000000000188,0.06400000000000006,1.593663662547193,0.33255732105813474,0.05411134470664891,0.0013486515202045801,-0.7749127704350254,1.0441308769284339,-1.8190436473634592
76,0.6240000000000023,0.6239999999999952,0.368,0.23200000000000232,0.1600000000000037,0.392,0.23199999999999632,0.12000000000000455,0.09600000000000364,0.08800000000000097,0.07200000000000273,0.05600000000000449,0.04800000000000182,0.03200000000000358,0.38400000000000034,0.2560000000000002,0.14399999999999835,0.1039999999999992,0.0799999999999983,0.06400000000000006,0.03999999999999915,0.5040000000000049,0.35200000000000387,0.23199999999999932,0.17600000000000193,0.13600000000000279,0.11200000000000188,0.07200000000000273,1.668478048759822,0.3149537558427777,0.028304064956821917,-0.13812241138140635,8.800495885072435,5.318483914290221,3.4820119707822137
77,0.6239999999999952,0.6240000000000023,0.352,0.19999999999999524,0.1599999999999966,0.424,0.2640000000000034,0.11999999999999744,0.09599999999999653,0.08800000000000097,0.07199999999999562,0.055999999999997385,0.04800000000000182,0.031999999999996476,0.3760000000000048,0.14399999999999835,0.12000000000000455,0.09600000000000364,0.07200000000000273,0.05600000000000449,0.03200000000000358,0.4960000000000022,0.23999999999999488,0.2080000000000055,0.16799999999999926,0.1280000000000001,0.10400000000000631,0.06400000000000006,1.8542865645554942,0.44952009962825445,0.1832912525800281,0.13825695984624997,10.983220746423905,6.016703615556148,4.966517130867757
78,0.632000000000005,0.6319999999999979,0.344,0.20800000000000501,0.1600000000000037,0.424,0.2639999999999963,0.11200000000000188,0.09600000000000364,0.08800000000000097,0.07200000000000273,0.055999999999997385,0.04800000000000182,0.03200000000000358,0.3919999999999959,0.14399999999999835,0.11999999999999744,0.09599999999999653,0.07200000000000273,0.055999999999997385,0.031999999999996476,0.5039999999999978,0.240000000000002,0.2079999999999984,0.16799999999999926,0.1280000000000001,0.1039999999999992,0.06400000000000006,1.72276108013016,0.31364125397447,0.08961677494684994,-0.003153039072416264,1.853214430557146,2.0727380086311293,-0.21952357807398326
79,0.607999999999997,0.6080000000000041,0.336,0.199999999999997,0.1599999999999966,0.408,0.24800000000000338,0.11200000000000188,0.09599999999999653,0.08800000000000097,0.07199999999999562,0.055999999999997385,0.04800000000000182,0.031999999999996476,0.35999999999999943,0.13600000000000279,0.12000000000000455,0.08800000000000097,0.07200000000000273,0.05600000000000449,0.03200000000000358,0.4720000000000013,0.23199999999999932,0.2080000000000055,0.1599999999999966,0.1280000000000001,0.10400000000000631,0.06400000000000006,1.6743960100856792,0.29424824004060357,0.012484219655952478,-0.04400005727339196,7.393300028765264,4.415021199659032,2.978278829106232
80,0.6080000000000041,0.6159999999999997,0.352,0.20000000000000412,0.1600000000000037,0.408,0.24799999999999628,0.12000000000000455,0.1039999999999992,0.08800000000000097,0.0800000000000054,0.06400000000000006,0.05600000000000449,0.03200000000000358,0.37599999999999767,0.15199999999999392,0.1280000000000001,0.09599999999999653,0.07199999999999562,0.06400000000000006,0.031999999999996476,0.4960000000000022,0.2559999999999931,0.21600000000000108,0.17600000000000193,0.13599999999999568,0.12000000000000455,0.06400000000000006,1.6535450983392006,0.38340995087088126,0.11209993866508905,0.03942582275508788,14.592539955539218,7.744759804631399,6.847780150907819
81,0.6319999999999979,0.6319999999999979,0.36,0.23199999999999787,0.16799999999999926,0.4,0.23200000000000076,0.12000000000000455,0.09600000000000364,0.08800000000000097,0.07200000000000273,0.06400000000000006,0.04800000000000182,0.03200000000000358,0.38400000000000034,0.1599999999999966,0.13599999999999568,0.1039999999999992,0.0799999999999983,0.06400000000000006,0.031999999999996476,0.5040000000000049,0.2560000000000002,0.22399999999999665,0.17600000000000193,0.14399999999999835,0.11200000000000188,0.06400000000000006,1.6740602419213535,0.3390614694369384,0.0940248626250294,-0.050819558841011414,7.648833341143803,4.649584565633509,2.999248775510294
82,0.6240000000000023,0.6240000000000023,0.352,0.20800000000000235,0.16799999999999926,0.416,0.24800000000000072,0.11999999999999744,0.09600000000000364,0.08800000000000097,0.07200000000000273,0.06400000000000006,0.04800000000000182,0.03200000000000358,0.3680000000000021,0.14399999999999835,0.11999999999999744,0.09599999999999653,0.07200000000000273,0.055999999999997385,0.031999999999996476,0.48799999999999955,0.240000000000002,0.2079999999999984,0.16799999999999926,0.13600000000000279,0.1039999999999992,0.06400000000000006,1.6720116351929233,0.4128326675067356,0.18350336110600374,0.11378380378951292,11.046093599366932,6.053747071444155,4.992346527922777
83,0.6399999999999935,0.6400000000000006,0.344,0.20799999999999347,0.16799999999999926,0.432,0.26400000000000073,0.12000000000000455,0.09600000000000364,0.08800000000000097,0.07200000000000273,0.05600000000000449,0.04800000000000182,0.03200000000000358,0.367999999999995,0.1280000000000001,0.11199999999999477,0.08800000000000097,0.06400000000000006,0.055999999999997385,0.031999999999996476,0.48799999999999955,0.22400000000000375,0.19999999999999574,0.1600000000000037,0.12000000000000455,0.1039999999999992,0.06400000000000006,1.5430167705963505,0.2503429333216488,0.07603200259067988,0.020813709712363626,26.906620162273654,12.136383472799684,14.77023668947397
84,0.6160000000000068,0.607999999999997,0.352,0.19200000000000678,0.16800000000000637,0.424,0.2559999999999936,0.12000000000000455,0.09600000000000364,0.08800000000000097,0.07200000000000273,0.05600000000000449,0.04800000000000182,0.03200000000000358,0.367999999999995,0.13599999999999568,0.11999999999999744,0.08799999999999386,0.07199999999999562,0.055999999999997385,0.031999999999996476,0.48799999999999955,0.23199999999999932,0.2079999999999984,0.1599999999999966,0.1280000000000001,0.1039999999999992,0.06400000000000006,1.5237358512507204,0.22772389432725518,-0.02946615838973765,-0.07255008869999358,8.35037358517375,4.956754329454321,3.39361925571943
85,0.6159999999999997,0.6159999999999997,0.352,0.21599999999999964,0.1599999999999966,0.4,0.24000000000000343,0.11999999999999744,0.09599999999999653,0.08800000000000097,0.07200000000000273,0.06400000000000006,0.04800000000000182,0.03200000000000358,0.37599999999999767,0.14399999999999835,0.1280000000000001,0.09599999999999653,0.07200000000000273,0.055999999999997385,0.031999999999996476,0.4959999999999951,0.23999999999999488,0.21600000000000108,0.16799999999999926,0.13600000000000279,0.1039999999999992,0.06400000000000006,1.601734362420657,0.3162098108480431,0.07064682544407686,-0.021296169749252192,6.1813903876909855,4.033256630944088,2.1481337567468977
86,0.6319999999999979,0.6319999999999979,0.352,0.22399999999999792,0.1599999999999966,0.408,0.24800000000000338,0.11999999999999744,0.09599999999999653,0.08800000000000097,0.07200000000000273,0.055999999999997385,0.04800000000000182,0.031999999999996476,0.38400000000000034,0.15200000000000102,0.1280000000000001,0.09600000000000364,0.07200000000000273,0.055999999999997385,0.03200000000000358,0.5039999999999978,0.24799999999999756,0.21600000000000108,0.16800000000000637,0.1280000000000001,0.1039999999999992,0.06400000000000006,1.687766165059183,0.3379857857942966,0.09169239490383485,-0.027162212313179057,6.560952923907811,4.099576570711795,2.461376353196016
87,0.6240000000000023,0.6240000000000023,0.352,0.21600000000000236,0.1599999999999966,0.408,0.24800000000000338,0.11199999999999477,0.09599999999999653,0.08800000000000097,0.07199999999999562,0.055999999999997385,0.047999999999994714,0.031999999999996476,0.38400000000000034,0.1600000000000037,0.13600000000000279,0.1039999999999992,0.0800000000000054,0.06400000000000006,0.03999999999999915,0.4959999999999951,0.2560000000000002,0.22400000000000375,0.17599999999999483,0.13600000000000279,0.11199999999999477,0.07199999999999562,1.8068665093491654,0.3694606382700627,0.07841700315608979,-0.039362801956425275,7.2526258975806295,4.442681285527075,2.8099446120535543
88,0.6319999999999979,0.6400000000000006,0.344,0.2079999999999979,0.1599999999999966,0.424,0.2640000000000034,0.11200000000000188,0.09599999999999653,0.08800000000000097,0.07200000000000273,0.055999999999997385,0.04800000000000182,0.02400000000000091,0.38400000000000034,0.13600000000000279,0.11999999999999744,0.09599999999999653,0.07200000000000273,0.06400000000000006,0.03999999999999915,0.4960000000000022,0.23199999999999932,0.2079999999999984,0.16799999999999926,0.1280000000000001,0.11200000000000188,0.06400000000000006,1.7482423811931758,0.40684754019361646,0.1791584126779316,0.10922783463923424,11.116732243571144,5.867017773797177,5.249714469773967
89,0.6400000000000006,0.6400000000000006,0.352,0.19200000000000056,0.16799999999999926,0.448,0.28000000000000075,0.11200000000000188,0.08800000000000097,0.0799999999999983,0.06400000000000006,0.055999999999997385,0.03999999999999915,0.02400000000000091,0.38400000000000034,0.13600000000000279,0.11999999999999744,0.09599999999999653,0.07200000000000273,0.055999999999997385,0.03999999999999915,0.4960000000000022,0.22400000000000375,0.19999999999999574,0.1599999999999966,0.1280000000000001,0.09599999999999653,0.06400000000000006,1.6622397237336606,0.2981192288554747,0.04516560338460274,0.01181479326446322,-68.3914773119832,-27.942437155995346,-40.449040155987845
90,0.6239999999999952,0.607999999999997,0.344,0.19999999999999524,0.16799999999999926,0.424,0.2560000000000007,0.11200000000000188,0.09600000000000364,0.08800000000000097,0.07200000000000273,0.05600000000000449,0.04800000000000182,0.03200000000000358,0.37599999999999767,0.13599999999999568,0.11999999999999744,0.09599999999999653,0.07199999999999562,0.055999999999997385,0.031999999999996476,0.48799999999999955,0.23199999999999932,0.2079999999999984,0.16799999999999926,0.1280000000000001,0.1039999999999992,0.06400000000000006,1.547601300676937,0.26063867756313897,0.010472009975088903,-0.05597048747706235,8.079214662786583,4.670771114571861,3.4084435482147226
91,0.6159999999999997,0.6240000000000023,0.344,0.21599999999999964,0.15200000000000102,0.4,0.247999999999999,0.11199999999999477,0.08800000000000097,0.0799999999999983,0.07199999999999562,0.055999999999997385,0.047999999999994714,0.02400000000000091,0.38400000000000034,0.15200000000000102,0.1280000000000001,0.1039999999999992,0.0800000000000054,0.06400000000000006,0.03999999999999915,0.4959999999999951,0.240000000000002,0.2079999999999984,0.17599999999999483,0.13600000000000279,0.11199999999999477,0.06400000000000006,1.6717561197628807,0.3415979173465102,0.08304319971072077,-0.021473198418844763,6.299634668088034,4.009562534569984,2.2900721335180503
92,0.632000000000005,0.6319999999999979,0.352,0.23200000000000498,0.1600000000000037,0.4,0.23999999999999633,0.11999999999999744,0.09600000000000364,0.08800000000000097,0.07200000000000273,0.055999999999997385,0.04800000000000182,0.03200000000000358,0.392000000000003,0.1599999999999966,0.13600000000000279,0.1039999999999992,0.0799999999999983,0.06400000000000006,0.03999999999999915,0.5120000000000005,0.2560000000000002,0.22400000000000375,0.17600000000000193,0.13599999999999568,0.11200000000000188,0.07200000000000273,1.7477354729375438,0.3624309111441554,0.10016343660226573,-0.05051263507030501,7.805343706507858,4.6265884011859155,3.1787553053219426
93,0.6239999999999952,0.6240000000000023,0.36,0.21599999999999525,0.1599999999999966,0.408,0.24800000000000338,0.11199999999999477,0.09599999999999653,0.08800000000000097,0.07199999999999562,0.055999999999997385,0.04800000000000182,0.031999999999996476,0.3680000000000021,0.15200000000000102,0.1280000000000001,0.09600000000000364,0.07200000000000273,0.06400000000000006,0.03999999999999915,0.4799999999999969,0.24799999999999756,0.21600000000000108,0.16799999999999926,0.1280000000000001,0.11200000000000188,0.07199999999999562,1.8968799577506033,0.378352801217354,0.1120009670128369,0.0327682863684422,16.873408587277073,8.744997767162145,8.128410820114928
94,0.6400000000000006,0.6479999999999961,0.344,0.21600000000000058,0.1600000000000037,0.424,0.2639999999999963,0.11999999999999744,0.09600000000000364,0.08800000000000097,0.07200000000000273,0.055999999999997385,0.04800000000000182,0.03200000000000358,0.38400000000000034,0.14399999999999835,0.1280000000000001,0.09599999999999653,0.07200000000000273,0.06400000000000006,0.03999999999999915,0.5039999999999978,0.240000000000002,0.21600000000000108,0.16799999999999926,0.1280000000000001,0.11200000000000188,0.07200000000000273,1.8029004015038943,0.3802374255429313,0.12335485605882679,0.04256241872243072,14.164393532965303,7.005313897177189,7.159079635788114
95,0.6240000000000023,0.6160000000000068,0.344,0.20000000000000234,0.16799999999999926,0.424,0.2560000000000007,0.11999999999999744,0.09599999999999653,0.08799999999999386,0.07199999999999562,0.055999999999997385,0.047999999999994714,0.031999999999996476,0.3760000000000048,0.2560000000000002,0.11200000000000188,0.08800000000000097,0.06400000000000006,0.05600000000000449,0.03200000000000358,0.4960000000000022,0.35199999999999676,0.19999999999999574,0.1599999999999966,0.11999999999999744,0.1039999999999992,0.06400000000000006,1.6947915121943624,0.33716871023934414,0.08628971105171251,0.02428534605310917,19.43619556678039,9.479180029019732,9.95701553776066
96,0.6159999999999997,0.6159999999999997,0.344,0.19199999999999967,0.1600000000000037,0.424,0.2639999999999963,0.11200000000000188,0.08800000000000097,0.0800000000000054,0.06400000000000006,0.05600000000000449,0.04800000000000182,0.02400000000000091,0.367999999999995,0.127999999999993,0.11199999999999477,0.08799999999999386,0.07199999999999562,0.055999999999997385,0.031999999999996476,0.4799999999999969,0.21599999999999397,0.19200000000000017,0.15199999999999392,0.1280000000000001,0.1039999999999992,0.055999999999997385,1.6983749803825725,0.23844394319372414,-0.013686064137160003,-0.05418722100951889,7.997395758746379,4.6970344169653275,3.300361341781051
97,0.6319999999999979,0.6319999999999979,0.352,0.23199999999999787,0.1600000000000037,0.4,0.23999999999999633,0.12000000000000455,0.09600000000000364,0.08800000000000097,0.07200000000000273,0.06400000000000006,0.04800000000000182,0.03200000000000358,0.3919999999999959,0.17599999999999483,0.13599999999999568,0.1039999999999992,0.07199999999999562,0.055999999999997385,0.031999999999996476,0.5120000000000005,0.27199999999999847,0.22399999999999665,0.17600000000000193,0.13599999999999568,0.1039999999999992,0.06400000000000006,1.802988640984478,0.3803214541728604,0.07492382486939397,-0.08157224637125815,8.495066768738816,4.9133831927335505,3.5816835760052657
98,0.6159999999999997,0.6240000000000023,0.344,0.19999999999999968,0.1600000000000037,0.416,0.2559999999999963,0.12000000000000455,0.1039999999999992,0.09600000000000364,0.0799999999999983,0.06400000000000006,0.05600000000000449,0.03200000000000358,0.37599999999999767,0.15200000000000102,0.1280000000000001,0.09599999999999653,0.07199999999999562,0.055999999999997385,0.031999999999996476,0.4960000000000022,0.2560000000000002,0.22400000000000375,0.17599999999999483,0.13599999999999568,0.11200000000000188,0.06400000000000006,1.8259411015181923,0.4889334698882788,0.19065766280418273,0.12054700208057012,10.843696934493062,5.9045941961481985,4.939102738344864
99,0.6400000000000006,0.6319999999999979,0.336,0.19200000000000056,0.16800000000000637,0.448,0.27999999999999364,0.12000000000000455,0.09600000000000364,0.08800000000000097,0.07200000000000273,0.05600000000000449,0.04800000000000182,0.03200000000000358,0.37599999999999767,0.11199999999999477,0.1039999999999992,0.0799999999999983,0.06400000000000006,0.047999999999994714,0.031999999999996476,0.4960000000000022,0.2079999999999984,0.19200000000000017,0.15200000000000102,0.12000000000000455,0.09599999999999653,0.06400000000000006,1.588239790076302,0.2711376428525638,0.16978464423115014,0.1412777886718357,10.62575069555334,5.470981173067475,5.154769522485864
100,0.6080000000000041,0.607999999999997,0.344,0.1920000000000041,0.1600000000000037,0.416,0.2559999999999963,0.11200000000000188,0.09600000000000364,0.08800000000000097,0.07200000000000273,0.05600000000000449,0.04800000000000182,0.03200000000000358,0.3680000000000021,0.14399999999999835,0.11999999999999744,0.09599999999999653,0.07199999999999562,0.055999999999997385,0.031999999999996476,0.480000000000004,0.240000000000002,0.2079999999999984,0.16799999999999926,0.1280000000000001,0.1039999999999992,0.06400000000000006,1.4617095258312287,0.14231860392795487,-0.11866695745049582,-0.17108022171645154,9.262125643855438,5.310334547985609,3.9517910958698286
101,0.6159999999999997,0.6159999999999997,0.344,0.19199999999999967,0.1599999999999966,0.424,0.2640000000000034,0.11199999999999477,0.09599999999999653,0.08800000000000097,0.07199999999999562,0.055999999999997385,0.04800000000000182,0.031999999999996476,0.3760000000000048,0.15200000000000102,0.1280000000000001,0.09600000000000364,0.0799999999999983,0.06400000000000006,0.03999999999999915,0.48799999999999955,0.24799999999999756,0.21600000000000108,0.16799999999999926,0.13599999999999568,0.11200000000000188,0.07199999999999562,1.657266317225114,0.3868546272191111,0.11014145303442957,0.05815876940238496,11.97963506951898,6.392808030108532,5.586827039410449
102,0.6159999999999997,0.632000000000005,0.352,0.22399999999999964,0.1599999999999966,0.392,0.23200000000000343,0.11199999999999477,0.09599999999999653,0.08800000000000097,0.07199999999999562,0.055999999999997385,0.047999999999994714,0.031999999999996476,0.35200000000000387,0.14400000000000546,0.1280000000000001,0.09600000000000364,0.0800000000000054,0.06400000000000006,0.03999999999999915,0.46399999999999864,0.240000000000002,0.21600000000000108,0.16799999999999926,0.13600000000000279,0.11199999999999477,0.07199999999999562,1.6467751784761115,0.23732694687492295,0.01470659654791584,-0.0689155760151845,8.455086695083509,5.026305799467157,3.4287808956163515
103,0.6400000000000006,0.6400000000000006,0.36,0.20000000000000057,0.17600000000000193,0.44,0.26399999999999807,0.12000000000000455,0.09600000000000364,0.08800000000000097,0.07200000000000273,0.05600000000000449,0.04800000000000182,0.03200000000000358,0.37599999999999767,0.13599999999999568,0.11999999999999744,0.09599999999999653,0.07199999999999562,0.055999999999997385,0.031999999999996476,0.4960000000000022,0.23199999999999932,0.2079999999999984,0.16799999999999926,0.1280000000000001,0.1039999999999992,0.06400000000000006,1.8010050363746926,0.3800527631501197,0.1181052692294976,0.07182287951707844,11.763761868685968,6.358831439198417,5.4049304294875515
104,0.6319999999999979,0.607999999999997,0.344,0.1999999999999979,0.17600000000000193,0.432,0.25599999999999806,0.12000000000000455,0.09600000000000364,0.08800000000000097,0.07200000000000273,0.05600000000000449,0.04800000000000182,0.03200000000000358,0.37599999999999767,0.19999999999999574,0.11999999999999744,0.08799999999999386,0.06399999999999295,0.055999999999997385,0.031999999999996476,0.4960000000000022,0.2959999999999994,0.2079999999999984,0.1599999999999966,0.11999999999999744,0.1039999999999992,0.06400000000000006,1.6422122946028188,0.30734727795464023,-0.013844615765067125,-0.07881644974371171,8.628138864323843,4.839164158749045,3.7889747055747973
105,0.6000000000000014,0.6000000000000014,0.336,0.18400000000000144,0.15200000000000102,0.416,0.26399999999999896,0.11200000000000188,0.08800000000000097,0.0799999999999983,0.06400000000000006,0.055999999999997385,0.04800000000000182,0.02400000000000091,0.3680000000000021,0.13600000000000279,0.11999999999999744,0.09599999999999653,0.07200000000000273,0.06400000000000006,0.03999999999999915,0.480000000000004,0.22400000000000375,0.19999999999999574,0.1599999999999966,0.1280000000000001,0.11200000000000188,0.06400000000000006,1.6415048530993845,0.3307909997648369,0.10011029859889697,0.06814847680806702,11.473785710101819,6.199187261846478,5.2745984482553405
106,0.6239999999999952,0.632000000000005,0.352,0.21599999999999525,0.15200000000000102,0.408,0.25599999999999895,0.1039999999999992,0.08800000000000807,0.0799999999999983,0.06400000000000716,0.055999999999997385,0.04800000000000182,0.02400000000000091,0.3919999999999959,0.15200000000000102,0.13599999999999568,0.1039999999999992,0.0799999999999983,0.06399999999999295,0.031999999999996476,0.4959999999999951,0.2400000000000091,0.21599999999999397,0.16800000000000637,0.13599999999999568,0.11199999999999477,0.055999999999997385,1.6820866381372643,0.31559800228314006,0.07645891590219128,-0.029857043057455956,7.250634667244393,4.439451767852599,2.8111828993917936
107,0.6159999999999997,0.6239999999999952,0.344,0.19199999999999967,0.1600000000000108,0.424,0.2639999999999892,0.1280000000000001,0.10400000000001342,0.09600000000000364,0.0800000000000125,0.06400000000000716,0.056000000000011596,0.04000000000000625,0.367999999999995,0.1280000000000001,0.11199999999999477,0.08799999999999386,0.06399999999999295,0.04799999999998761,0.0239999999999867,0.4959999999999951,0.23200000000001353,0.2079999999999984,0.16800000000000637,0.1280000000000001,0.1039999999999992,0.06399999999999295,1.5991968679021118,0.3090702311046028,0.09555353937209243,0.06294976979065525,11.61625501586187,6.234191951817161,5.38206306404471
108,0.6240000000000094,0.6239999999999952,0.344,0.19200000000000944,0.16800000000000637,0.432,0.26399999999999363,0.1280000000000001,0.11200000000000898,0.1039999999999992,0.08800000000000807,0.07200000000000273,0.06400000000000716,0.04000000000000625,0.35999999999999943,0.11199999999999477,0.1039999999999992,0.0799999999999983,0.055999999999997385,0.04800000000000182,0.02400000000000091,0.48799999999999955,0.22400000000000375,0.2079999999999984,0.16800000000000637,0.1280000000000001,0.11200000000000898,0.06400000000000716,1.5380558794448214,0.26957628903635067,0.09705248998402949,0.06746830800701886,11.44266515262707,6.0855162649358014,5.3571488876912685
109,0.6159999999999997,0.6080000000000041,0.352,0.18399999999999966,0.16799999999999216,0.432,0.26400000000000784,0.11199999999999477,0.09600000000000364,0.0799999999999983,0.06399999999999295,0.055999999999997385,0.04800000000000182,0.02400000000000091,0.3680000000000092,0.14400000000000546,0.12000000000000455,0.09600000000000364,0.07200000000000273,0.055999999999997385,0.031999999999996476,0.480000000000004,0.2400000000000091,0.20000000000000284,0.1599999999999966,0.1280000000000001,0.1039999999999992,0.055999999999997385,1.4283830715839314,0.20114238673976856,-0.07599498517705994,-0.10203320808538685,9.0288287896901,5.257192024617665,3.7716367650724356
110,0.5999999999999943,0.5999999999999943,0.336,0.18399999999999433,0.1599999999999966,0.416,0.2560000000000034,0.12000000000000455,0.09600000000000364,0.08800000000000807,0.07200000000000273,0.055999999999997385,0.04800000000000182,0.031999999999996476,0.367999999999995,0.14400000000000546,0.12000000000000455,0.09600000000000364,0.07200000000000273,0.055999999999997385,0.031999999999996476,0.48799999999999955,0.2400000000000091,0.20800000000001262,0.16800000000000637,0.1280000000000001,0.1039999999999992,0.06399999999999295,1.559571115331929,0.29978833412779793,0.02391830013517604,-0.008285708955885096,4.745374666686198,3.3496588671537517,1.395715799532446
111,0.6159999999999997,0.6159999999999997,0.352,0.19199999999999967,0.1599999999999966,0.424,0.2640000000000034,0.11199999999999477,0.09599999999998943,0.08799999999999386,0.07200000000000273,0.055999999999997385,0.04800000000000182,0.031999999999996476,0.3680000000000092,0.14400000000000546,0.1280000000000001,0.09600000000000364,0.07200000000000273,0.06400000000000716,0.04000000000000625,0.480000000000004,0.23999999999999488,0.21599999999999397,0.16800000000000637,0.1280000000000001,0.11200000000000898,0.07200000000000273,1.6452988110691926,0.2811911835542741,0.016984885535437755,-0.017839624217895533,6.334469281138086,4.107758412170108,2.2267108689679773
112,0.6080000000000041,0.6240000000000094,0.352,0.1840000000000041,0.1599999999999966,0.424,0.2640000000000034,0.11199999999999477,0.09599999999998943,0.08799999999999386,0.07199999999998852,0.055999999999997385,0.04800000000000182,0.031999999999996476,0.3359999999999985,0.1360000000000099,0.12000000000000455,0.09600000000000364,0.07200000000000273,0.06400000000000716,0.04000000000000625,0.4479999999999933,0.23199999999999932,0.2079999999999984,0.16799999999999216,0.1280000000000001,0.11200000000000898,0.07200000000000273,1.6748379922601138,0.31174040390365054,0.10969495025110909,0.09746743310703099,10.915708946332227,6.163082354934333,4.7526265913978945
113,0.6159999999999997,0.5999999999999943,0.352,0.18399999999999966,0.17600000000000193,0.432,0.25599999999999806,0.12000000000000455,0.09600000000000364,0.08800000000000807,0.07200000000000273,0.056000000000011596,0.04800000000000182,0.03200000000001069,0.367999999999995,0.2560000000000002,0.11999999999999034,0.08799999999999386,0.07199999999998852,0.055999999999997385,0.031999999999996476,0.48799999999999955,0.35200000000000387,0.2079999999999984,0.1599999999999966,0.1280000000000001,0.1039999999999992,0.06400000000000716,1.4601149221765184,0.250631929311407,-0.02293955772199041,-0.05211876639048518,8.438922172556042,4.994783561329258,3.4441386112267844
114,0.5999999999999943,0.5999999999999943,0.344,0.18399999999999433,0.1599999999999966,0.416,0.2560000000000034,0.12000000000000455,0.09600000000000364,0.08799999999999386,0.07200000000000273,0.055999999999997385,0.04800000000000182,0.031999999999996476,0.367999999999995,0.14400000000000546,0.12000000000000455,0.09600000000000364,0.07200000000000273,0.055999999999997385,0.031999999999996476,0.48799999999999955,0.2400000000000091,0.2079999999999984,0.16800000000000637,0.1280000000000001,0.1039999999999992,0.06399999999999295,1.4713975373151305,0.2638399542773786,0.0024234555033402216,-0.024328336212479096,7.345921510353545,4.552420697096871,2.7935008132566743
115,0.6000000000000085,0.6080000000000041,0.36,0.19200000000000855,0.1599999999999966,0.408,0.24800000000000338,0.11999999999999034,0.1039999999999992,0.09599999999998943,0.0799999999999983,0.06399999999999295,0.055999999999997385,0.031999999999996476,0.3680000000000092,0.1600000000000108,0.1280000000000001,0.10400000000001342,0.0800000000000125,0.06400000000000716,0.04000000000000625,0.48799999999999955,0.26400000000001,0.22399999999998954,0.1840000000000117,0.14400000000000546,0.12000000000000455,0.07200000000000273,1.6064688163837417,0.33086032838271184,0.03079269384957095,-0.026911758733114355,7.4625153249168585,4.812199770814614,2.650315554102245
116,0.6079999999999899,0.6159999999999997,0.352,0.1839999999999899,0.16799999999999216,0.424,0.25600000000000783,0.12000000000000455,0.09600000000000364,0.08799999999999386,0.07200000000000273,0.055999999999997385,0.04800000000000182,0.031999999999996476,0.35999999999999943,0.13599999999999568,0.12000000000000455,0.09600000000000364,0.07200000000000273,0.055999999999997385,0.031999999999996476,0.480000000000004,0.23199999999999932,0.2079999999999984,0.16800000000000637,0.1280000000000001,0.1039999999999992,0.06399999999999295,1.5558034679240995,0.33118434316953477,0.11012427897183691,0.08883753965184832,10.877195578373337,6.154080117121559,4.723115461251778
117,0.6000000000000085,0.5919999999999987,0.344,0.17600000000000854,0.17600000000000193,0.424,0.24799999999999806,0.11999999999999034,0.1039999999999992,0.09600000000000364,0.07200000000000273,0.06399999999999295,0.04800000000000182,0.031999999999996476,0.35200000000000387,0.13599999999999568,0.11200000000000898,0.08800000000000807,0.06400000000000716,0.055999999999997385,0.031999999999996476,0.4719999999999942,0.23999999999999488,0.20800000000001262,0.1600000000000108,0.1280000000000001,0.1039999999999992,0.06399999999999295,1.4507033898843429,0.29743822033458345,0.031511719246998915,0.018296345665799463,17.434407756760777,8.998627683775354,8.435780072985423
118,0.5999999999999943,0.6000000000000085,0.352,0.18399999999999433,0.16799999999999216,0.416,0.24800000000000783,0.11999999999999034,0.1039999999999992,0.09599999999998943,0.0799999999999983,0.06399999999999295,0.055999999999997385,0.031999999999996476,0.35999999999999943,0.14400000000000546,0.12000000000000455,0.08800000000000807,0.07200000000000273,0.055999999999997385,0.03200000000001069,0.47999999999998977,0.24800000000000466,0.21599999999999397,0.16800000000000637,0.13599999999999568,0.11199999999999477,0.06400000000000716,1.396022428449156,0.20091337274484677,-0.07173926156123189,-0.10053481535043074,9.134826137193361,5.452728173806972,3.682097963386389
119,0.6000000000000085,0.5999999999999943,0.352,0.16800000000000853,0.16800000000000637,0.432,0.26399999999999363,0.1280000000000001,0.1039999999999992,0.09600000000000364,0.0799999999999983,0.06400000000000716,0.056000000000011596,0.04000000000000625,0.367999999999995,0.14399999999999125,0.11999999999999034,0.08799999999999386,0.07199999999998852,0.055999999999997385,0.031999999999996476,0.4959999999999951,0.24799999999999045,0.21599999999999397,0.16799999999999216,0.13599999999999568,0.11200000000000898,0.07200000000000273,1.5542538208305685,0.37407608922252755,0.07803222188582726,0.07085861152873929,11.086487035823392,6.335166412905882,4.75132062291751
120,0.6159999999999997,0.6080000000000041,0.336,0.17599999999999966,0.16799999999999216,0.44,0.27200000000000785,0.12000000000000455,0.09600000000000364,0.08799999999999386,0.07200000000000273,0.055999999999997385,0.04800000000000182,0.031999999999996476,0.367999999999995,0.12000000000000455,0.1039999999999992,0.08800000000000807,0.06400000000000716,0.055999999999997385,0.031999999999996476,0.48799999999999955,0.21600000000000819,0.19199999999999307,0.1600000000000108,0.12000000000000455,0.1039999999999992,0.06399999999999295,1.3887547321229294,0.26864339749008903,0.1486186159780164,0.13496762232817472,10.417716650178974,5.605563024882183,4.812153625296792
121,0.583999999999989,0.5919999999999987,0.328,0.167999999999989,0.1599999999999966,0.416,0.2560000000000034,0.11200000000000898,0.09600000000000364,0.08800000000000807,0.07200000000000273,0.055999999999997385,0.04800000000000182,0.031999999999996476,0.35200000000000387,0.1280000000000001,0.11199999999999477,0.08799999999999386,0.06399999999999295,0.055999999999997385,0.031999999999996476,0.46400000000001285,0.22400000000000375,0.20000000000000284,0.1599999999999966,0.11999999999999034,0.1039999999999992,0.06399999999999295,1.2103498114061066,0.11207700568927417,-0.12573341305937447,-0.1326231172645554,9.38353502747297,5.330305180841542,4.053229846631428
122,0.5919999999999987,0.5919999999999987,0.344,0.16799999999999876,0.16800000000000637,0.424,0.2559999999999936,0.12000000000000455,0.09600000000000364,0.08800000000000807,0.07200000000000273,0.06400000000000716,0.04800000000000182,0.031999999999996476,0.35200000000000387,0.1280000000000001,0.11199999999999477,0.08799999999999386,0.06399999999999295,0.055999999999997385,0.031999999999996476,0.4720000000000084,0.22400000000000375,0.20000000000000284,0.1599999999999966,0.1280000000000001,0.1039999999999992,0.06399999999999295,1.3357653330704098,0.30147600339851677,0.0969956694602897,0.09148499108710734,10.62595897209067,6.071250761430648,4.554708210660022
123,0.6080000000000041,0.6080000000000041,0.36,0.1920000000000041,0.16800000000000637,0.416,0.24799999999999361,0.12000000000000455,0.09600000000000364,0.08799999999999386,0.07200000000000273,0.055999999999997385,0.04800000000000182,0.031999999999996476,0.367999999999995,0.15200000000000102,0.1280000000000001,0.09600000000000364,0.07200000000000273,0.06399999999999295,0.04000000000000625,0.48799999999999955,0.24800000000000466,0.21599999999999397,0.16800000000000637,0.1280000000000001,0.11199999999999477,0.07200000000000273,1.4348805917399081,0.15864333100143033,-0.15026241100521054,-0.19659352026371857,9.459864130619277,5.649976751295006,3.8098873793242705
124,0.6080000000000041,0.5919999999999987,0.352,0.1840000000000041,0.17600000000000193,0.424,0.24799999999999806,0.12000000000000455,0.09600000000000364,0.08800000000000807,0.06400000000000716,0.055999999999997385,0.04800000000000182,0.02400000000000091,0.35999999999999943,0.14399999999999125,0.11999999999999034,0.09600000000000364,0.07200000000000273,0.055999999999997385,0.03999999999999204,0.480000000000004,0.23999999999999488,0.2079999999999984,0.1600000000000108,0.1280000000000001,0.1039999999999992,0.06399999999999295,1.3897092362774237,0.17445693226699258,-0.12648408538585354,-0.1548088573197871,9.385235769756795,5.489461746326386,3.895774023430409
125,0.5919999999999987,0.5999999999999943,0.336,0.16799999999999876,0.1599999999999966,0.424,0.2640000000000034,0.11200000000000898,0.09600000000000364,0.08800000000000807,0.07200000000000273,0.055999999999997385,0.04800000000000182,0.02400000000000091,0.35999999999999943,0.13599999999999568,0.12000000000000455,0.08799999999999386,0.07200000000000273,0.055999999999997385,0.031999999999996476,0.4720000000000084,0.23199999999999932,0.20800000000001262,0.1599999999999966,0.1280000000000001,0.1039999999999992,0.055999999999997385,1.4301724114905392,0.2624940748137615,0.02259297527069115,0.016074728272472805,17.526261761017935,8.93178971891003,8.594472042107904
126,0.5999999999999943,0.6000000000000085,0.344,0.19199999999999434,0.16799999999999216,0.408,0.24000000000000782,0.11999999999999034,0.1039999999999992,0.09599999999998943,0.0799999999999983,0.06399999999999295,0.055999999999997385,0.031999999999996476,0.35999999999999943,0.14400000000000546,0.12000000000000455,0.09600000000000364,0.07200000000000273,0.055999999999997385,0.03200000000001069,0.47999999999998977,0.24800000000000466,0.21599999999999397,0.17600000000000193,0.13599999999999568,0.11199999999999477,0.06400000000000716,1.5887796235549188,0.3181872626205555,0.006784628167283646,-0.04186865479759416,8.296784718882527,4.9688183601304985,3.327966358752029
127,0.6080000000000041,0.5999999999999943,0.336,0.1680000000000041,0.16800000000000637,0.44,0.27199999999999364,0.12000000000000455,0.09600000000000364,0.08800000000000807,0.07200000000000273,0.056000000000011596,0.04800000000000182,0.03200000000001069,0.37599999999999056,0.27199999999999136,0.1039999999999992,0.0799999999999983,0.06399999999999295,0.055999999999997385,0.031999999999996476,0.4959999999999951,0.367999999999995,0.19200000000000728,0.15200000000000102,0.12000000000000455,0.1039999999999992,0.06400000000000716,1.5035394236539137,0.29071757841712387,0.1361260884687442,0.13054122089160036,10.446084307427816,5.700273709912326,4.745810597515489
128,0.5840000000000032,0.5919999999999987,0.328,0.1680000000000032,0.1599999999999966,0.416,0.2560000000000034,0.11199999999999477,0.09600000000000364,0.08799999999999386,0.07200000000000273,0.055999999999997385,0.04800000000000182,0.031999999999996476,0.3439999999999941,0.1280000000000001,0.11199999999999477,0.08799999999999386,0.06400000000000716,0.055999999999997385,0.031999999999996476,0.45599999999998886,0.22400000000000375,0.19999999999998863,0.1599999999999966,0.12000000000000455,0.1039999999999992,0.06399999999999295,1.3800445277581144,0.1699484351457612,-0.06271801542534267,-0.06548482573848263,8.915328604375595,5.130909785089874,3.7844188192857215
129,0.5999999999999943,0.5919999999999987,0.344,0.17599999999999433,0.16799999999999216,0.424,0.25600000000000783,0.12000000000000455,0.09600000000000364,0.08799999999999386,0.07200000000000273,0.06399999999999295,0.055999999999997385,0.031999999999996476,0.367999999999995,0.2560000000000002,0.12000000000000455,0.08800000000000807,0.07200000000000273,0.055999999999997385,0.031999999999996476,0.48799999999999955,0.35200000000000387,0.2079999999999984,0.1600000000000108,0.13599999999999568,0.11199999999999477,0.06399999999999295,1.4282670856465625,0.27518286172481754,-0.017990724444399142,-0.03402145543633911,8.178749726238449,4.907054475947046,3.271695250291403
130,0.5999999999999943,0.6080000000000041,0.344,0.18399999999999433,0.1599999999999966,0.416,0.2560000000000034,0.11999999999999034,0.09600000000000364,0.08799999999999386,0.07200000000000273,0.055999999999997385,0.04800000000000182,0.031999999999996476,0.35999999999999943,0.14400000000000546,0.12000000000000455,0.09600000000000364,0.07200000000000273,0.055999999999997385,0.031999999999996476,0.47999999999998977,0.2400000000000091,0.2079999999999984,0.16800000000000637,0.1280000000000001,0.1039999999999992,0.06399999999999295,1.505930281301206,0.31871546123333216,0.06382288673026193,0.037222294831908476,12.23719720678756,6.684036934742474,5.553160272045085
131,0.6000000000000085,0.5919999999999987,0.328,0.19200000000000855,0.16800000000000637,0.408,0.2399999999999936,0.12000000000000455,0.1039999999999992,0.08799999999999386,0.07200000000000273,0.06400000000000716,0.04800000000000182,0.031999999999996476,0.35999999999999943,0.23199999999999932,0.11199999999999477,0.08799999999999386,0.06399999999999295,0.04800000000000182,0.031999999999996476,0.480000000000004,0.3359999999999985,0.19999999999998863,0.1599999999999966,0.1280000000000001,0.09600000000000364,0.06399999999999295,1.3588992304477263,0.32136929170368567,0.09707966122356687,0.061166350476012765,11.01412585877885,5.867642184969031,5.146483673809819
132,0.5840000000000032,0.5840000000000032,0.328,0.1760000000000032,0.1599999999999966,0.408,0.24800000000000338,0.12000000000000455,0.09600000000000364,0.08799999999999386,0.07200000000000273,0.055999999999997385,0.04800000000000182,0.031999999999996476,0.35999999999999943,0.2079999999999984,0.12000000000000455,0.08799999999999386,0.06400000000000716,0.055999999999997385,0.031999999999996476,0.480000000000004,0.30400000000000205,0.2079999999999984,0.1599999999999966,0.12000000000000455,0.1039999999999992,0.06399999999999295,1.2924403169822485,0.20030428167200612,-0.08203312834713583,-0.10287566307692231,9.309737497315114,5.300540470751457,4.0091970265636565
133,0.5919999999999987,0.5999999999999943,0.336,0.18399999999999878,0.1599999999999966,0.408,0.24800000000000338,0.12000000000000455,0.09600000000000364,0.08800000000000807,0.07200000000000273,0.055999999999997385,0.04800000000000182,0.031999999999996476,0.35999999999999943,0.14399999999999125,0.11999999999999034,0.09600000000000364,0.07200000000000273,0.06399999999999295,0.031999999999996476,0.480000000000004,0.23999999999999488,0.2079999999999984,0.16800000000000637,0.1280000000000001,0.11199999999999477,0.06399999999999295,1.4934506243628738,0.3243250335155621,0.040625000029371416,0.007615233738770932,121.1676582876395,53.41592485805013,67.75173342958936
134,0.5999999999999943,0.6000000000000085,0.344,0.18399999999999433,0.16799999999999216,0.416,0.24800000000000783,0.11999999999999034,0.1039999999999992,0.09600000000000364,0.0799999999999983,0.06399999999999295,0.055999999999997385,0.031999999999996476,0.35999999999999943,0.14400000000000546,0.12000000000000455,0.09600000000000364,0.07200000000000273,0.055999999999997385,0.031999999999996476,0.47999999999998977,0.24800000000000466,0.21600000000000819,0.17600000000000193,0.13599999999999568,0.11199999999999477,0.06399999999999295,1.5009074658539787,0.3125721251253599,0.01635613562706517,-0.014926167782650546,6.745195789494588,4.28361917882037,2.461576610674218
135,0.5999999999999943,0.583999999999989,0.336,0.18399999999999433,0.16800000000000637,0.416,0.24799999999999361,0.12000000000000455,0.09600000000000364,0.08800000000000807,0.07200000000000273,0.056000000000011596,0.04800000000000182,0.03200000000001069,0.367999999999995,0.28000000000000114,0.11199999999999477,0.08799999999999386,0.06399999999999295,0.055999999999997385,0.031999999999996476,0.48799999999999955,0.3760000000000048,0.20000000000000284,0.1599999999999966,0.12000000000000455,0.1039999999999992,0.06400000000000716,1.442905980432744,0.3627306029608234,0.1282848810085836,0.0946964692655703,10.587253055011141,5.83743506859429,4.749817986416851
136,0.5840000000000032,0.5919999999999987,0.328,0.18400000000000316,0.15200000000000102,0.4,0.247999999999999,0.11199999999999477,0.09599999999998943,0.08799999999999386,0.07199999999998852,0.055999999999997385,0.04799999999998761,0.031999999999996476,0.3680000000000092,0.14400000000000546,0.12000000000000455,0.09600000000000364,0.07200000000000273,0.06400000000000716,0.03200000000001069,0.480000000000004,0.23999999999999488,0.2079999999999984,0.16799999999999216,0.1280000000000001,0.11199999999999477,0.06400000000000716,1.3365634809404274,0.19538962381607494,-0.06451297395830224,-0.10243257270257311,9.302255805862314,5.301902249321832,4.000353556540483
137,0.6000000000000085,0.6000000000000085,0.344,0.17600000000000854,0.1599999999999966,0.424,0.2640000000000034,0.11199999999999477,0.09599999999998943,0.08799999999999386,0.07199999999998852,0.055999999999997385,0.04799999999998761,0.031999999999996476,0.3760000000000048,0.1840000000000117,0.1360000000000099,0.10400000000001342,0.0800000000000125,0.06400000000000716,0.04000000000000625,0.48799999999999955,0.28000000000000114,0.22400000000000375,0.17600000000000193,0.1360000000000099,0.11199999999999477,0.07200000000000273,1.5213982900538467,0.3717949715128585,0.0041185210579510745,-0.013320029171327352,6.593939965199569,4.217146645497115,2.376793319702454
138,0.6079999999999899,0.6080000000000041,0.344,0.1839999999999899,0.1599999999999966,0.424,0.2640000000000034,0.12000000000000455,0.09600000000000364,0.08800000000000807,0.07200000000000273,0.055999999999997385,0.04800000000000182,0.031999999999996476,0.367999999999995,0.14399999999999125,0.1280000000000001,0.09600000000000364,0.07200000000000273,0.06399999999999295,0.03999999999999204,0.48799999999999955,0.23999999999999488,0.21600000000000819,0.16800000000000637,0.1280000000000001,0.11199999999999477,0.07199999999998852,1.5108398049607805,0.3625091662843821,0.08409728486868018,0.0602779081096535,11.124298447823817,6.116594928983636,5.007703518840181
139,0.5840000000000032,0.583999999999989,0.328,0.1760000000000032,0.1600000000000108,0.408,0.24799999999998917,0.12000000000000455,0.09600000000000364,0.08800000000000807,0.07200000000000273,0.056000000000011596,0.04800000000000182,0.02400000000000091,0.367999999999995,0.19999999999998863,0.11999999999999034,0.08799999999999386,0.07199999999998852,0.055999999999997385,0.03999999999999204,0.48799999999999955,0.29599999999999227,0.2079999999999984,0.1599999999999966,0.1280000000000001,0.1039999999999992,0.06399999999999295,1.412727397261221,0.28048641918582884,-0.01141954738535178,-0.038591550075119385,8.514568985017071,4.955945117852386,3.558623867164685
140,0.5919999999999987,0.5840000000000032,0.336,0.18399999999999878,0.1599999999999966,0.408,0.24800000000000338,0.11999999999999034,0.09599999999998943,0.08799999999999386,0.07199999999998852,0.06399999999999295,0.04800000000000182,0.031999999999996476,0.3680000000000092,0.23199999999999932,0.12000000000000455,0.09600000000000364,0.07200000000000273,0.056000000000011596,0.03200000000001069,0.48799999999999955,0.32799999999998875,0.2079999999999984,0.16799999999999216,0.13599999999999568,0.10400000000001342,0.06400000000000716,1.5757690971277714,0.3012635006252283,-0.023313274879517287,-0.058234884188674174,8.811266071238041,5.143058159386433,3.668207911851608
141,0.5919999999999987,0.6000000000000085,0.336,0.19199999999999873,0.15200000000000102,0.4,0.247999999999999,0.11199999999999477,0.09600000000000364,0.08799999999999386,0.07200000000000273,0.055999999999997385,0.04800000000000182,0.02400000000000091,0.35200000000000387,0.14400000000000546,0.1280000000000001,0.09600000000000364,0.07200000000000273,0.06400000000000716,0.04000000000000625,0.46399999999999864,0.2400000000000091,0.21599999999999397,0.16800000000000637,0.1280000000000001,0.11200000000000898,0.06400000000000716,1.6334583125895858,0.34312375643264725,0.07826078609693088,0.047762577462563405,11.605829958123447,6.337183892137152,5.268646065986295
142,0.6000000000000085,0.5999999999999943,0.328,0.2000000000000085,0.1600000000000108,0.4,0.23999999999998922,0.11200000000000898,0.08800000000000807,0.0800000000000125,0.06400000000000716,0.056000000000011596,0.04800000000000182,0.02400000000000091,0.35199999999998965,0.14399999999999125,0.11999999999999034,0.09599999999998943,0.07199999999998852,0.06399999999999295,0.03999999999999204,0.46399999999999864,0.23199999999999932,0.20000000000000284,0.1599999999999966,0.1280000000000001,0.11199999999999477,0.06399999999999295,1.6040789551104957,0.38263321400425754,0.10640215173721201,0.04901296258200505,11.524675284172487,6.0789369155366675,5.445738368635819
143,0.5919999999999987,0.5919999999999987,0.328,0.17599999999999877,0.1599999999999966,0.416,0.2560000000000034,0.11199999999999477,0.09600000000000364,0.08799999999999386,0.07200000000000273,0.055999999999997385,0.04800000000000182,0.031999999999996476,0.367999999999995,0.22400000000000375,0.12000000000000455,0.08799999999999386,0.06399999999999295,0.055999999999997385,0.031999999999996476,0.47999999999998977,0.3200000000000074,0.2079999999999984,0.1599999999999966,0.11999999999999034,0.1039999999999992,0.06399999999999295,1.4600586252971526,0.21883192471954604,-0.1017285998534776,-0.11758119389811139,9.348131217904893,5.2460980321717265,4.102033185733166
144,0.5919999999999987,0.5919999999999987,0.336,0.18399999999999878,0.1599999999999966,0.408,0.24800000000000338,0.12000000000000455,0.1039999999999992,0.09600000000000364,0.0799999999999983,0.06399999999999295,0.055999999999997385,0.031999999999996476,0.367999999999995,0.2639999999999958,0.1280000000000001,0.09600000000000364,0.07200000000000273,0.055999999999997385,0.031999999999996476,0.48799999999999955,0.367999999999995,0.22400000000000375,0.17600000000000193,0.13599999999999568,0.11199999999999477,0.06399999999999295,1.7090662478342566,0.4248107348470822,0.06893249481485086,0.031075468755366265,12.813118205989802,6.851118686135728,5.961999519854074
145,0.5919999999999987,0.6000000000000085,0.352,0.17599999999999877,0.1599999999999966,0.416,0.2560000000000034,0.12000000000000455,0.09600000000000364,0.08799999999999386,0.07200000000000273,0.06399999999999295,0.04800000000000182,0.031999999999996476,0.35999999999999943,0.14400000000000546,0.12000000000000455,0.08800000000000807,0.07200000000000273,0.055999999999997385,0.031999999999996476,0.480000000000004,0.2400000000000091,0.2079999999999984,0.1600000000000108,0.13599999999999568,0.1039999999999992,0.06399999999999295,1.6180735565731106,0.3228340809931159,0.024144158695646567,0.006238372001244108,-91.67655944479871,-40.958629775735815,-50.7179296690629
146,0.6080000000000041,0.5919999999999987,0.336,0.1920000000000041,0.16800000000000637,0.416,0.24799999999999361,0.12000000000000455,0.09600000000000364,0.08800000000000807,0.07200000000000273,0.056000000000011596,0.04800000000000182,0.03200000000001069,0.37599999999999056,0.27199999999999136,0.11999999999999034,0.08799999999999386,0.06399999999999295,0.055999999999997385,0.031999999999996476,0.4959999999999951,0.367999999999995,0.2079999999999984,0.1599999999999966,0.12000000000000455,0.1039999999999992,0.06400000000000716,1.6839355178865019,0.39971884413875514,0.10087597332430054,0.048225895096217775,11.632397619403415,6.206650745357566,5.425746874045849
147,0.583999999999989,0.5919999999999987,0.328,0.19999999999998896,0.15200000000000102,0.384,0.23199999999999898,0.11200000000000898,0.09600000000000364,0.08800000000000807,0.07200000000000273,0.056000000000011596,0.04800000000000182,0.03200000000001069,0.37599999999999056,0.27199999999999136,0.1280000000000001,0.09599999999998943,0.07199999999998852,0.055999999999997385,0.031999999999996476,0.48799999999999955,0.367999999999995,0.21600000000000819,0.16799999999999216,0.1280000000000001,0.1039999999999992,0.06400000000000716,1.4760716252342383,0.31294656836112744,0.00791003975178306,-0.0915754119924932,9.249200107877746,5.276555795772255,3.9726443121054906
148,0.5840000000000032,0.5919999999999987,0.344,0.19200000000000317,0.1600000000000108,0.392,0.23199999999998921,0.12000000000000455,0.09600000000000364,0.08800000000000807,0.07200000000000273,0.06400000000000716,0.04800000000000182,0.03200000000001069,0.35999999999999943,0.19999999999998863,0.1280000000000001,0.09599999999998943,0.07199999999998852,0.055999999999997385,0.031999999999996476,0.480000000000004,0.29599999999999227,0.21600000000000819,0.16799999999999216,0.13599999999999568,0.1039999999999992,0.06400000000000716,1.710071971715755,0.4576533871266687,0.10658339969698127,0.046284357130640164,11.569948608447072,6.578603676169107,4.991344932277966
149,0.6000000000000085,0.5919999999999987,0.328,0.24800000000000855,0.16800000000000637,0.352,0.1839999999999936,0.12000000000000455,0.09600000000000364,0.08800000000000807,0.07200000000000273,0.06400000000000716,0.055999999999997385,0.031999999999996476,0.3359999999999985,0.1599999999999966,0.1280000000000001,0.09600000000000364,0.07200000000000273,0.055999999999997385,0.031999999999996476,0.45600000000000307,0.2560000000000002,0.21600000000000819,0.16800000000000637,0.1360000000000099,0.11199999999999477,0.06399999999999295,1.6333522758423158,0.39132938534050365,0.13840847318026406,-0.010203997141049803,5.824607813657402,3.796442878116303,2.028164935541099
150,0.5999999999999943,0.5919999999999987,0.328,0.16799999999999432,0.1599999999999966,0.432,0.2720000000000034,0.11200000000000898,0.09600000000000364,0.08800000000000807,0.07200000000000273,0.055999999999997385,0.04800000000000182,0.02400000000000091,0.367999999999995,0.1280000000000001,0.11199999999999477,0.08799999999999386,0.06399999999999295,0.055999999999997385,0.031999999999996476,0.480000000000004,0.22400000000000375,0.20000000000000284,0.1599999999999966,0.11999999999999034,0.1039999999999992,0.055999999999997385,1.573320928797251,0.40262665930494523,0.20648780524684884,0.20251062918481388,10.192474360670007,5.5295563554837255,4.662918005186281
151,0.5919999999999987,0.5840000000000032,0.344,0.18399999999999878,0.1599999999999966,0.408,0.24800000000000338,0.12000000000000455,0.09600000000000364,0.08799999999999386,0.07200000000000273,0.055999999999997385,0.04800000000000182,0.031999999999996476,0.367999999999995,0.24800000000000466,0.1280000000000001,0.09600000000000364,0.07200000000000273,0.06400000000000716,0.04000000000000625,0.48799999999999955,0.3440000000000083,0.21599999999999397,0.16800000000000637,0.1280000000000001,0.11200000000000898,0.07200000000000273,1.684361901296903,0.4452353494682252,0.10415065613819141,0.06439721920250441,11.000119391964702,6.234714422677833,4.76540496928687
152,0.5919999999999987,0.5999999999999943,0.344,0.19199999999999873,0.15200000000000102,0.4,0.247999999999999,0.11200000000000898,0.09600000000000364,0.08800000000000807,0.07200000000000273,0.055999999999997385,0.04800000000000182,0.031999999999996476,0.35999999999999943,0.15200000000000102,0.1280000000000001,0.1039999999999992,0.0799999999999983,0.06399999999999295,0.03999999999999204,0.4720000000000084,0.24800000000000466,0.21600000000000819,0.17600000000000193,0.13599999999999568,0.11199999999999477,0.07199999999998852,1.5636893114459482,0.34542159427871166,0.09060440402076964,0.041853654217350655,11.607540312481186,6.490724982213123,5.116815330268063
153,0.5919999999999987,0.5919999999999987,0.336,0.16799999999999876,0.1600000000000108,0.424,0.2639999999999892,0.11200000000000898,0.09600000000000364,0.08800000000000807,0.07200000000000273,0.056000000000011596,0.04800000000000182,0.03200000000001069,0.37599999999999056,0.13599999999999568,0.11999999999999034,0.08799999999999386,0.07199999999998852,0.055999999999997385,0.031999999999996476,0.48799999999999955,0.23199999999999932,0.2079999999999984,0.1599999999999966,0.1280000000000001,0.1039999999999992,0.06400000000000716,1.3657069368022652,0.18016898030670736,-0.08387962240147961,-0.0939845773129307,9.321354560644307,5.360107549187687,3.9612470114566207
154,0.592000000000013,0.5919999999999987,0.344,0.16800000000001297,0.1600000000000108,0.424,0.2639999999999892,0.12000000000000455,0.09600000000000364,0.08800000000000807,0.07200000000000273,0.06400000000000716,0.055999999999997385,0.03200000000001069,0.367999999999995,0.14399999999999125,0.11999999999999034,0.09599999999998943,0.07200000000000273,0.055999999999997385,0.031999999999996476,0.48799999999999955,0.23999999999999488,0.2079999999999984,0.16799999999999216,0.1360000000000099,0.11199999999999477,0.06400000000000716,1.4385079484343941,0.2285276603578389,-0.04907670515542861,-0.05679604116887749,8.962017479478762,5.330169273544401,3.631848205934361
155,0.5999999999999943,0.5999999999999943,0.344,0.17599999999999433,0.1599999999999966,0.424,0.2640000000000034,0.12000000000000455,0.09600000000000364,0.08800000000000807,0.07200000000000273,0.06400000000000716,0.04800000000000182,0.031999999999996476,0.35999999999999943,0.14399999999999125,0.11999999999999034,0.09600000000000364,0.07200000000000273,0.055999999999997385,0.031999999999996476,0.480000000000004,0.23999999999999488,0.2079999999999984,0.16800000000000637,0.1360000000000099,0.1039999999999992,0.06399999999999295,1.6335808668054956,0.3585353013701196,0.07927673872675367,0.062222792929774506,11.026621032246284,6.161653728274051,4.864967303972233
156,0.5999999999999943,0.5919999999999987,0.328,0.18399999999999433,0.1599999999999966,0.416,0.2560000000000034,0.11999999999999034,0.09600000000000364,0.08799999999999386,0.07200000000000273,0.055999999999997385,0.04800000000000182,0.031999999999996476,0.3680000000000092,0.2560000000000002,0.11200000000000898,0.08800000000000807,0.06400000000000716,0.055999999999997385,0.031999999999996476,0.48799999999999955,0.35200000000000387,0.20000000000000284,0.1600000000000108,0.12000000000000455,0.1039999999999992,0.06399999999999295,1.464148283651205,0.25141677223048287,0.03199626064761707,0.003040360035363343,-10.104880346013623,-2.8640183501703196,-7.240861995843304
157,0.5840000000000032,0.5919999999999987,0.32,0.1760000000000032,0.15200000000000102,0.408,0.25599999999999895,0.11199999999999477,0.09599999999998943,0.08799999999999386,0.07200000000000273,0.055999999999997385,0.04800000000000182,0.031999999999996476,0.3680000000000092,0.2880000000000109,0.12000000000000455,0.08800000000000807,0.07200000000000273,0.055999999999997385,0.03200000000001069,0.480000000000004,0.38400000000000034,0.2079999999999984,0.1600000000000108,0.1280000000000001,0.1039999999999992,0.06400000000000716,1.4538034747932131,0.2736951889875374,-0.014205294318333839,-0.04126928295778254,8.704965508651004,4.927657037954564,3.7773084706964397
158,0.6000000000000085,0.5919999999999987,0.344,0.17600000000000854,0.1599999999999966,0.424,0.2640000000000034,0.11999999999999034,0.09599999999998943,0.08799999999999386,0.07199999999998852,0.06399999999999295,0.055999999999997385,0.031999999999996476,0.3680000000000092,0.26400000000001,0.12000000000000455,0.08800000000000807,0.07200000000000273,0.056000000000011596,0.03200000000001069,0.48799999999999955,0.35999999999999943,0.2079999999999984,0.1599999999999966,0.13599999999999568,0.11200000000000898,0.06400000000000716,1.6016470846868942,0.2970259927065454,-0.0009995665575186496,-0.018870960339754994,7.408825778664161,4.577616224669782,2.8312095539943787
159,0.5919999999999987,0.6000000000000085,0.336,0.17599999999999877,0.1519999999999868,0.416,0.26400000000001317,0.11199999999999477,0.09599999999998943,0.08799999999999386,0.07199999999998852,0.055999999999997385,0.04799999999998761,0.031999999999996476,0.35999999999999943,0.1360000000000099,0.12000000000000455,0.09600000000000364,0.07200000000000273,0.056000000000011596,0.03200000000001069,0.4719999999999942,0.23199999999999932,0.2079999999999984,0.16799999999999216,0.1280000000000001,0.1039999999999992,0.06400000000000716,1.583582476462479,0.27611087066854084,0.036131088879749584,0.02440741254183465,13.226436444487799,7.027676069098585,6.198760375389214
160,0.6079999999999899,0.5919999999999987,0.328,0.1839999999999899,0.1599999999999966,0.424,0.2640000000000034,0.11200000000000898,0.09600000000000364,0.08800000000000807,0.07200000000000273,0.055999999999997385,0.04800000000000182,0.031999999999996476,0.38400000000000034,0.30400000000000205,0.12000000000000455,0.08799999999999386,0.07200000000000273,0.055999999999997385,0.031999999999996476,0.4960000000000093,0.4000000000000057,0.20800000000001262,0.1599999999999966,0.1280000000000001,0.1039999999999992,0.06399999999999295,1.5920231147340143,0.33201432226659744,0.08559653213879187,0.04579165484336678,11.440196751398542,5.972663264691172,5.46753348670737
161,0.5840000000000032,0.5919999999999987,0.32,0.1760000000000032,0.14400000000000546,0.408,0.2639999999999945,0.1039999999999992,0.08799999999999386,0.0799999999999983,0.06400000000000716,0.055999999999997385,0.04800000000000182,0.02400000000000091,0.38400000000000034,0.30400000000000205,0.12000000000000455,0.09600000000000364,0.07200000000000273,0.055999999999997385,0.031999999999996476,0.48799999999999955,0.3919999999999959,0.20000000000000284,0.1600000000000108,0.1280000000000001,0.1039999999999992,0.055999999999997385,1.4682547600615656,0.20988630612638048,-0.1159313882885864,-0.14689514361006784,9.518324209418255,5.26320982347524,4.255114385943015
162,0.5919999999999987,0.5919999999999987,0.328,0.18399999999999878,0.15200000000000102,0.408,0.25599999999999895,0.11199999999999477,0.09600000000000364,0.08799999999999386,0.07200000000000273,0.055999999999997385,0.04800000000000182,0.031999999999996476,0.3760000000000048,0.2560000000000002,0.12000000000000455,0.08799999999999386,0.07200000000000273,0.055999999999997385,0.031999999999996476,0.48799999999999955,0.35200000000000387,0.2079999999999984,0.1599999999999966,0.1280000000000001,0.1039999999999992,0.06399999999999295,1.6575500991265317,0.477404336005704,0.2148373625643436,0.17038425939501,10.242381048251278,5.625458512798245,4.616922535453034
163,0.6000000000000085,0.6000000000000085,0.344,0.17600000000000854,0.15200000000000102,0.424,0.27199999999999896,0.11199999999999477,0.08799999999999386,0.0799999999999983,0.06399999999999295,0.055999999999997385,0.04800000000000182,0.02400000000000091,0.35999999999999943,0.13599999999999568,0.12000000000000455,0.09600000000000364,0.07200000000000273,0.06400000000000716,0.04000000000000625,0.4719999999999942,0.22399999999998954,0.20000000000000284,0.1599999999999966,0.1280000000000001,0.11200000000000898,0.06400000000000716,1.481997872957379,0.18629535037558265,-0.05616262082001333,-0.06553655370236633,9.060633018224598,5.305199818854399,3.7554331993701986
164,0.5999999999999943,0.5999999999999943,0.328,0.18399999999999433,0.15200000000000102,0.416,0.26399999999999896,0.11200000000000898,0.08800000000000807,0.0800000000000125,0.06400000000000716,0.04800000000000182,0.04000000000000625,0.02400000000000091,0.35999999999999943,0.1280000000000001,0.11199999999999477,0.08799999999999386,0.07199999999998852,0.055999999999997385,0.031999999999996476,0.4720000000000084,0.21600000000000819,0.19200000000000728,0.15200000000000102,0.11999999999999034,0.09600000000000364,0.055999999999997385,1.5089113937540128,0.3225281140759013,0.150383070897939,0.12811724393406493,10.348211514637303,5.594760225115765,4.7534512895215375
165,0.5840000000000032,0.5919999999999987,0.328,0.1760000000000032,0.15200000000000102,0.408,0.25599999999999895,0.11199999999999477,0.09600000000000364,0.08800000000000807,0.07200000000000273,0.055999999999997385,0.04800000000000182,0.031999999999996476,0.35999999999999943,0.23999999999999488,0.12000000000000455,0.08799999999999386,0.06399999999999295,0.055999999999997385,0.031999999999996476,0.4719999999999942,0.3359999999999985,0.20800000000001262,0.1599999999999966,0.11999999999999034,0.1039999999999992,0.06399999999999295,1.3237405757540717,0.1826930056689495,-0.10424411755409563,-0.11851044891366053,9.483503233809223,5.379331467031809,4.104171766777414
166,0.5919999999999987,0.5919999999999987,0.336,0.17599999999999877,0.1599999999999966,0.416,0.2560000000000034,0.12000000000000455,0.09600000000000364,0.08799999999999386,0.07200000000000273,0.06399999999999295,0.04800000000000182,0.031999999999996476,0.367999999999995,0.27200000000000557,0.12000000000000455,0.08799999999999386,0.06400000000000716,0.055999999999997385,0.031999999999996476,0.48799999999999955,0.3680000000000092,0.2079999999999984,0.1599999999999966,0.1280000000000001,0.1039999999999992,0.06399999999999295,1.4813901913614305,0.3314219131257141,0.026816441334995222,0.008496067196142043,27.89183697162804,13.419060109514394,14.472776862113648
167,0.5919999999999987,0.5999999999999943,0.336,0.16799999999999876,0.1599999999999966,0.424,0.2640000000000034,0.12000000000000455,0.09600000000000364,0.08799999999999386,0.07200000000000273,0.055999999999997385,0.04800000000000182,0.031999999999996476,0.35999999999999943,0.13599999999999568,0.12000000000000455,0.08800000000000807,0.06400000000000716,0.055999999999997385,0.031999999999996476,0.480000000000004,0.23199999999999932,0.2079999999999984,0.1600000000000108,0.12000000000000455,0.1039999999999992,0.06399999999999295,1.453454959769891,0.3057697374616957,0.05346576471539649,0.0479976339855811,11.126559297052777,6.148659484752907,4.977899812299871
168,0.6080000000000041,0.6000000000000085,0.344,0.1760000000000041,0.16799999999999216,0.432,0.26400000000000784,0.11999999999999034,0.09599999999998943,0.08799999999999386,0.07199999999998852,0.055999999999997385,0.04799999999998761,0.031999999999996476,0.3680000000000092,0.26400000000001,0.12000000000000455,0.08800000000000807,0.06400000000000716,0.056000000000011596,0.03200000000001069,0.48799999999999955,0.35999999999999943,0.2079999999999984,0.1599999999999966,0.12000000000000455,0.1039999999999992,0.06400000000000716,1.42906858631367,0.23733547844459918,-0.001782690882297544,-0.013084021265736379,6.9746257736560295,4.309738156825123,2.6648876168309066
169,0.5919999999999987,0.5919999999999987,0.328,0.16799999999999876,0.1599999999999966,0.424,0.2640000000000034,0.11199999999999477,0.09600000000000364,0.08800000000000807,0.07200000000000273,0.055999999999997385,0.04800000000000182,0.031999999999996476,0.367999999999995,0.2639999999999958,0.11199999999999477,0.08799999999999386,0.06399999999999295,0.055999999999997385,0.031999999999996476,0.47999999999998977,0.35999999999999943,0.20000000000000284,0.1599999999999966,0.11999999999999034,0.1039999999999992,0.06399999999999295,1.450690194255549,0.24037383659561012,-0.024317960944371664,-0.033766111410229005,8.531627895278017,4.90032699229441,3.6313009029836074
170,0.5919999999999987,0.5919999999999987,0.336,0.17599999999999877,0.1599999999999966,0.416,0.2560000000000034,0.11199999999999477,0.09600000000000364,0.08799999999999386,0.07200000000000273,0.055999999999997385,0.04800000000000182,0.031999999999996476,0.35999999999999943,0.13599999999999568,0.12000000000000455,0.08799999999999386,0.06399999999999295,0.055999999999997385,0.031999999999996476,0.4719999999999942,0.23199999999999932,0.2079999999999984,0.1599999999999966,0.11999999999999034,0.1039999999999992,0.06399999999999295,1.4946086111295314,0.29314201898059083,-0.0013592318823052452,-0.014012858689082197,7.128340516757768,4.41024540717099,2.718095109586778
171,0.5919999999999987,0.5999999999999943,0.344,0.17599999999999877,0.1599999999999966,0.416,0.2560000000000034,0.12000000000000455,0.09600000000000364,0.08799999999999386,0.07200000000000273,0.055999999999997385,0.04800000000000182,0.031999999999996476,0.35999999999999943,0.14400000000000546,0.12000000000000455,0.08800000000000807,0.07200000000000273,0.055999999999997385,0.031999999999996476,0.480000000000004,0.2400000000000091,0.2079999999999984,0.1600000000000108,0.1280000000000001,0.1039999999999992,0.06399999999999295,1.580960115450167,0.26658139405003917,-0.046467913417664874,-0.06770391048791113,9.113047092909413,5.399365753225001,3.7136813396844124
172,0.6080000000000041,0.6000000000000085,0.344,0.1840000000000041,0.16799999999999216,0.424,0.25600000000000783,0.11999999999999034,0.09599999999998943,0.08799999999999386,0.07199999999998852,0.055999999999997385,0.04799999999998761,0.031999999999996476,0.36000000000001364,0.1280000000000001,0.11200000000000898,0.08800000000000807,0.06400000000000716,0.056000000000011596,0.03200000000001069,0.480000000000004,0.22399999999998954,0.20000000000000284,0.1599999999999966,0.12000000000000455,0.1039999999999992,0.06400000000000716,1.7370972164508383,0.3564023431638478,0.09589821040978008,0.07079674864989138,10.878619981380352,6.0237141344752105,4.854905846905141
173,0.5919999999999987,0.5919999999999987,0.336,0.17599999999999877,0.1599999999999966,0.416,0.2560000000000034,0.11199999999999477,0.09600000000000364,0.08800000000000807,0.07200000000000273,0.055999999999997385,0.04800000000000182,0.031999999999996476,0.35999999999999943,0.13599999999999568,0.12000000000000455,0.08799999999999386,0.06399999999999295,0.055999999999997385,0.031999999999996476,0.4719999999999942,0.23199999999999932,0.20800000000001262,0.1599999999999966,0.11999999999999034,0.1039999999999992,0.06399999999999295,1.611868072562714,0.2549356433700126,-0.04202158387614463,-0.06022933039652423,9.005211440082904,5.225628063624891,3.779583376458014
174,0.5919999999999987,0.5919999999999987,0.336,0.17599999999999877,0.1599999999999966,0.416,0.2560000000000034,0.12000000000000455,0.09600000000000364,0.08799999999999386,0.07200000000000273,0.055999999999997385,0.04800000000000182,0.031999999999996476,0.35999999999999943,0.13599999999999568,0.11199999999999477,0.08799999999999386,0.06399999999999295,0.055999999999997385,0.031999999999996476,0.480000000000004,0.23199999999999932,0.19999999999998863,0.1599999999999966,0.11999999999999034,0.1039999999999992,0.06399999999999295,1.6801535890627037,0.33737715257452744,0.04979125396027795,0.03265440635246031,12.10295320506502,6.575811269154699,5.527141935910321
175,0.5840000000000032,0.5919999999999987,0.36,0.1680000000000032,0.1599999999999966,0.416,0.2560000000000034,0.12000000000000455,0.09600000000000364,0.08799999999999386,0.07200000000000273,0.06399999999999295,0.04800000000000182,0.031999999999996476,0.35999999999999943,0.1599999999999966,0.13599999999999568,0.1039999999999992,0.0799999999999983,0.06400000000000716,0.04000000000000625,0.480000000000004,0.2560000000000002,0.22399999999998954,0.17600000000000193,0.14399999999999125,0.11200000000000898,0.07200000000000273,1.6242279601753435,0.2822579135779441,-0.08731297388873582,-0.09639848361170067,9.35115876319457,5.837265508432926,3.513893254761644
176,0.583999999999989,0.5760000000000076,0.328,0.18399999999998895,0.16799999999999216,0.4,0.23200000000000787,0.12000000000000455,0.09600000000000364,0.08799999999999386,0.07200000000000273,0.055999999999997385,0.04800000000000182,0.031999999999996476,0.3440000000000083,0.24800000000000466,0.1039999999999992,0.0799999999999983,0.055999999999997385,0.04800000000000182,0.02400000000000091,0.46400000000001285,0.3440000000000083,0.19199999999999307,0.15200000000000102,0.11199999999999477,0.09600000000000364,0.055999999999997385,1.7374627067176305,0.4809554507838028,0.15462693245477988,0.12273784287593903,10.38867173766294,5.771955102669303,4.616716634993637
177,0.6000000000000085,0.5999999999999943,0.336,0.17600000000000854,0.1600000000000108,0.424,0.2639999999999892,0.11200000000000898,0.09600000000000364,0.0800000000000125,0.06400000000000716,0.056000000000011596,0.04800000000000182,0.02400000000000091,0.37599999999999056,0.2639999999999958,0.11999999999999034,0.08799999999999386,0.07199999999998852,0.055999999999997385,0.03999999999999204,0.48799999999999955,0.35999999999999943,0.20000000000000284,0.15200000000000102,0.1280000000000001,0.1039999999999992,0.06399999999999295,1.5676489813410899,0.2982374722981489,0.010207160963290551,-0.012338236806906933,6.825707485405019,4.210387490855115,2.615319994549904
178,0.5919999999999987,0.5919999999999987,0.336,0.17599999999999877,0.1599999999999966,0.416,0.2560000000000034,0.11199999999999477,0.09600000000000364,0.08799999999999386,0.07200000000000273,0.055999999999997385,0.04800000000000182,0.031999999999996476,0.35999999999999943,0.13599999999999568,0.12000000000000455,0.08799999999999386,0.07200000000000273,0.055999999999997385,0.031999999999996476,0.4719999999999942,0.23199999999999932,0.2079999999999984,0.1599999999999966,0.1280000000000001,0.1039999999999992,0.06399999999999295,1.5529944763975159,0.27392766737977536,-0.011056330052017116,-0.027108495259719034,8.225536166426043,4.891151382020096,3.3343847844059464
179,0.5999999999999943,0.5999999999999943,0.344,0.19199999999999434,0.1599999999999966,0.408,0.24800000000000338,0.12000000000000455,0.09600000000000364,0.08799999999999386,0.07200000000000273,0.055999999999997385,0.04800000000000182,0.031999999999996476,0.367999999999995,0.15200000000000102,0.1280000000000001,0.09600000000000364,0.07200000000000273,0.06400000000000716,0.031999999999996476,0.48799999999999955,0.24800000000000466,0.21599999999999397,0.16800000000000637,0.1280000000000001,0.11200000000000898,0.06399999999999295,1.6498359311251578,0.35870584670229233,0.04794457204832614,-0.002874667544337739,3.455156494664377,2.87431874104474,0.5808377536196372
180,0.6000000000000085,0.6080000000000041,0.344,0.17600000000000854,0.1599999999999966,0.424,0.2640000000000034,0.11999999999999034,0.09599999999998943,0.08799999999999386,0.07199999999998852,0.055999999999997385,0.04799999999998761,0.031999999999996476,0.36000000000001364,0.1360000000000099,0.12000000000000455,0.08800000000000807,0.07200000000000273,0.056000000000011596,0.03200000000001069,0.480000000000004,0.23199999999999932,0.2079999999999984,0.1599999999999966,0.1280000000000001,0.1039999999999992,0.06400000000000716,1.6404825611927012,0.28097558538839773,0.009493835159744335,-0.0043058213758014885,4.216482384610568,3.1869866126303483,1.02949577198022
181,0.6079999999999899,0.6080000000000041,0.344,0.16799999999998988,0.16799999999999216,0.44,0.27200000000000785,0.11999999999999034,0.1039999999999992,0.09600000000000364,0.0799999999999983,0.06399999999999295,0.055999999999997385,0.031999999999996476,0.3680000000000092,0.1280000000000001,0.11200000000000898,0.08800000000000807,0.06400000000000716,0.055999999999997385,0.031999999999996476,0.48799999999999955,0.23199999999999932,0.20800000000001262,0.16800000000000637,0.1280000000000001,0.11199999999999477,0.06399999999999295,1.6878682522191664,0.3421093922463516,0.07575795845023103,0.07126605293940924,10.790411653368377,5.985410097278336,4.8050015560900405
